Time (s),Filtered EMG Contracted
0.0,0.0773229129026616
0.0004883289383728,0.0909275489428131
0.0009766578767457,0.1058676145425752
0.0014649868151186,0.1088575878908982
0.0019533157534915,0.0963355077905579
0.0024416446918644,0.0915560623797171
0.0029299736302373,0.0991958842356913
0.0034183025686102,0.0954892721137449
0.0039066315069831,0.071213923377607
0.0043949604453559,0.0450741621691929
0.0048832893837288,0.038661356369346
0.0053716183221017,0.0542621532456257
0.0058599472604746,0.0744567491063503
0.0063482761988475,0.0814335094793716
0.0068366051372204,0.0635484937298618
0.0073249340755933,0.0133092107726486
0.0078132630139662,0.0570349769217234
0.008301591952339,0.1212350838715808
0.0087899208907119,0.1560262661047068
0.0092782498290848,0.1462890774499679
0.0097665787674577,0.1081712782270138
0.0102549077058306,0.0826408411541038
0.0107432366442035,0.0848954535142061
0.0112315655825764,0.0937077621776854
0.0117198945209493,0.0878144987166358
0.0122082234593221,0.0660333547000971
0.012696552397695,0.0394574143303709
0.0131848813360679,0.0235995054827135
0.0136732102744408,0.0266958009543769
0.0141615392128137,0.0355389113552955
0.0146498681511866,0.0331706997339409
0.0151381970895595,0.0223999323667516
0.0156265260279324,0.0094327391142242
0.0161148549663053,0.0089185078863551
0.0166031839046781,0.0297669392405852
0.017091512843051,0.0430798370411222
0.0175798417814239,0.045066673245843
0.0180681707197968,0.0442854921523712
0.0185564996581697,0.0557367862343708
0.0190448285965426,0.083878843663341
0.0195331575349155,0.1118052683365075
0.0200214864732884,0.1162614487618883
0.0205098154116612,0.0966134415063693
0.0209981443500341,0.0698201343096431
0.021486473288407,0.0441031057639065
0.0219748022267799,0.0201921192571959
0.0224631311651528,0.0034142625236412
0.0229514601035257,0.0039675238008368
0.0234397890418986,0.0249222054095356
0.0239281179802715,0.0504403208912926
0.0244164469186443,0.0592613542674464
0.0249047758570172,0.0461453329385737
0.0253931047953901,0.0221883361987137
0.025881433733763,0.0032458077006942
0.0263697626721359,0.009230741068869
0.0268580916105088,0.0324938260179766
0.0273464205488817,0.0693085811913064
0.0278347494872546,0.0983695574728515
0.0283230784256275,0.1149798291345916
0.0288114073640003,0.1331347039876513
0.0292997363023732,0.1453241616452068
0.0297880652407461,0.1377784259689596
0.030276394179119,0.1220015542740153
0.0307647231174919,0.1061993339527371
0.0312530520558648,0.0773198636956342
0.0317413809942377,0.0299428876253796
0.0322297099326106,0.0185833490797677
0.0327180388709834,0.0439986068296453
0.0332063678093563,0.0428961503636999
0.0336946967477292,0.0325540624689018
0.0341830256861021,0.0259136557262028
0.034671354624475,0.0338480647862206
0.0351596835628479,0.0645011172853028
0.0356480125012208,0.1021712376207948
0.0361363414395937,0.1236060521312138
0.0366246703779666,0.1281081938483384
0.0371129993163394,0.1252867277413671
0.0376013282547123,0.1108464604461967
0.0380896571930852,0.0731241265505755
0.0385779861314581,0.0264914848825247
0.039066315069831,0.0057369732853856
0.0395546440082039,0.0095555577103696
0.0400429729465768,0.0006471695179976
0.0405313018849497,0.0337120041251103
0.0410196308233225,0.0699051104498583
0.0415079597616954,0.082407437578722
0.0419962887000683,0.059430722378957
0.0424846176384412,0.0114178501717529
0.0429729465768141,0.0323428891010917
0.043461275515187,0.0544197149730797
0.0439496044535599,0.0591286638332284
0.0444379333919328,0.0540284699140124
0.0449262623303056,0.0355961356780684
0.0454145912686785,0.0071297192359807
0.0459029202070514,0.0750271714416076
0.0463912491454243,0.1444063929455863
0.0468795780837972,0.1739424168501603
0.0473679070221701,0.1505603869216276
0.047856235960543,0.1112778069928179
0.0483445648989159,0.0888970338365996
0.0488328938372887,0.0728257954771798
0.0493212227756616,0.0429709620242563
0.0498095517140345,0.0089538909590623
0.0502978806524074,0.0080537051237764
0.0507862095907803,0.0081688740556894
0.0512745385291532,0.0052693475605238
0.0517628674675261,0.0082460734012093
0.052251196405899,0.0173911242704083
0.0527395253442719,0.0293526312190767
0.0532278542826447,0.0400721279633161
0.0537161832210176,0.0454676168752503
0.0542045121593905,0.047149073164748
0.0546928410977634,0.0523404691401783
0.0551811700361363,0.0631308095930485
0.0556694989745092,0.070772758174479
0.0561578279128821,0.0701490267589292
0.056646156851255,0.0678255568640425
0.0571344857896278,0.0618671746648432
0.0576228147280007,0.043459589633106
0.0581111436663736,0.0231678800732715
0.0585994726047465,0.0188626506197953
0.0590878015431194,0.0248760754758101
0.0595761304814923,0.0277148696802382
0.0600644594198652,0.0249337178428598
0.0605527883582381,0.0019299207086032
0.061041117296611,0.0549357858145564
0.0615294462349838,0.1196176200264404
0.0620177751733567,0.1468871576699456
0.0625061041117296,0.1194512326987173
0.0629944330501025,0.0682184003904795
0.0634827619884754,0.0363186493831382
0.0639710909268483,0.0266874610846467
0.0644594198652212,0.0223969966699753
0.0649477488035941,0.0200360337561966
0.0654360777419669,0.0131643332249809
0.0659244066803398,0.005902242737168
0.0664127356187127,0.023019728885102
0.0669010645570856,0.0128039018044035
0.0673893934954585,0.0248033443999215
0.0678777224338314,0.0502586775732867
0.0683660513722043,0.0332948343078176
0.0688543803105772,0.0044910704206223
0.06934270924895,0.039622666696905
0.0698310381873229,0.0792085839933545
0.0703193671256958,0.1164336792637552
0.0708076960640687,0.1273817427472461
0.0712960250024416,0.1026005364095689
0.0717843539408145,0.0599580528089852
0.0722726828791874,0.035676570335125
0.0727610118175603,0.0402408089047514
0.0732493407559332,0.0531588704323541
0.073737669694306,0.0638527085990998
0.0742259986326789,0.0699995819751136
0.0747143275710518,0.0623419181398324
0.0752026565094247,0.0410115285164296
0.0756909854477976,0.0164960876218728
0.0761793143861705,0.0082954044148301
0.0766676433245434,0.0351246696241154
0.0771559722629163,0.0606488294594523
0.0776443012012891,0.0766036240750919
0.078132630139662,0.0825171954326453
0.0786209590780349,0.094206272525118
0.0791092880164078,0.1124904349382407
0.0795976169547807,0.1092290486330086
0.0800859458931536,0.0736051350363899
0.0805742748315265,0.0317727448039486
0.0810626037698994,0.013265717265788
0.0815509327082723,0.0228740635306936
0.0820392616466451,0.0392456173759407
0.082527590585018,0.0373466567365825
0.0830159195233909,0.0151465862271494
0.0835042484617638,0.0102860832388308
0.0839925774001367,0.0294639068569249
0.0844809063385096,0.0423235133577969
0.0849692352768825,0.0476000592492007
0.0854575642152554,0.050151443266085
0.0859458931536282,0.0591204219297743
0.0864342220920011,0.0728653139111108
0.086922551030374,0.0808519273341634
0.0874108799687469,0.0764687241241557
0.0878992089071198,0.055569830900825
0.0883875378454927,0.0145480493805683
0.0888758667838656,0.0326633229392964
0.0893641957222385,0.0527695854231573
0.0898525246606113,0.030189141415225
0.0903408535989842,0.0101808359184135
0.0908291825373571,0.0280346969664168
0.09131751147573,0.0048382056635119
0.0918058404141029,0.042041253058744
0.0922941693524758,0.0824603662813611
0.0927824982908487,0.1059034076195068
0.0932708272292216,0.1175610040668726
0.0937591561675944,0.1080429775305838
0.0942474851059673,0.0610694793190985
0.0947358140443402,0.0030651279695533
0.0952241429827131,0.041780725604168
0.095712471921086,0.045384206713256
0.0962008008594589,0.0342472451355318
0.0966891297978318,0.0179815751972952
0.0971774587362047,0.0085274002753465
0.0976657876745775,0.0408964392613798
0.0981541166129504,0.0624008252320448
0.0986424455513233,0.0635613915964086
0.0991307744896962,0.0519637831638659
0.0996191034280691,0.0406341126760607
0.100107432366442,0.0377304056245076
0.1005957613048149,0.0431363399139196
0.1010840902431878,0.0473744682365925
0.1015724191815607,0.0409875462610052
0.1020607481199335,0.0261354134152029
0.1025490770583064,0.0071606951453201
0.1030374059966793,0.0259477345947696
0.1035257349350522,0.0759795090622131
0.1040140638734251,0.1200387944615336
0.104502392811798,0.1324641700721494
0.1049907217501709,0.1119458859262733
0.1054790506885438,0.0909947916195441
0.1059673796269166,0.1011030189393581
0.1064557085652895,0.127312313185853
0.1069440375036624,0.1280850055220353
0.1074323664420353,0.0969417910360115
0.1079206953804082,0.0725099927012574
0.1084090243187811,0.07962071903498
0.108897353257154,0.0978307343486279
0.1093856821955269,0.1016800496505709
0.1098740111338997,0.0941395794253863
0.1103623400722726,0.085578844232583
0.1108506690106455,0.0651425675123193
0.1113389979490184,0.0129107663649389
0.1118273268873913,0.0675064091342541
0.1123156558257642,0.1497045284256079
0.1128039847641371,0.2074629146411399
0.11329231370251,0.2258916568857422
0.1137806426408829,0.2106385040781195
0.1142689715792557,0.1864351691840136
0.1147573005176286,0.1699310969866353
0.1152456294560015,0.1494701614966331
0.1157339583943744,0.1088181575054792
0.1162222873327473,0.0568256561155466
0.1167106162711202,0.0117019690548952
0.1171989452094931,0.0214694009971355
0.117687274147866,0.0506885008737841
0.1181756030862389,0.0828589394256361
0.1186639320246117,0.1076917755266883
0.1191522609629846,0.1130463795668631
0.1196405899013575,0.1049744202903276
0.1201289188397304,0.0961360466156489
0.1206172477781033,0.08708460006814
0.1211055767164762,0.0652627605548438
0.1215939056548491,0.0342522090502158
0.122082234593222,0.0260365215284971
0.1225705635315948,0.054586418198529
0.1230588924699677,0.0906680263246276
0.1235472214083406,0.1019379916619234
0.1240355503467135,0.0843837280015158
0.1245238792850864,0.0506476526971914
0.1250122082234593,0.0126949389086429
0.1255005371618322,0.019003792772449
0.1259888661002051,0.0355088094777343
0.126477195038578,0.0401060004619596
0.1269655239769508,0.0482917200075631
0.1274538529153237,0.0674553292607648
0.1279421818536966,0.0821154563415308
0.1284305107920695,0.0741675649052901
0.1289188397304424,0.0546168410741089
0.1294071686688153,0.0489508142047618
0.1298954976071882,0.0600339160347882
0.130383826545561,0.0632766323278497
0.1308721554839339,0.0405629244728796
0.1313604844223068,0.0122058892696789
0.1318488133606797,0.0072542513379604
0.1323371422990526,0.0228549340726422
0.1328254712374255,0.0392112353599288
0.1333138001757984,0.0473436787540683
0.1338021291141713,0.0466664329326663
0.1342904580525442,0.0308389787405297
0.134778786990917,0.0001402323574491
0.1352671159292899,0.0296856945668823
0.1357554448676628,0.0521471560278847
0.1362437738060357,0.0731283639433298
0.1367321027444086,0.0878976948695854
0.1372204316827815,0.0879136006228281
0.1377087606211544,0.0839193010797624
0.1381970895595273,0.0878324903369051
0.1386854184979001,0.0847569196323487
0.139173747436273,0.0621852345742744
0.1396620763746459,0.0392460753223433
0.1401504053130188,0.0331994815506462
0.1406387342513917,0.0329960584477416
0.1411270631897646,0.0279276971336145
0.1416153921281375,0.0247941266146952
0.1421037210665104,0.0229883255020059
0.1425920500048833,0.0152847965462819
0.1430803789432561,0.0140897020871192
0.143568707881629,0.0272689968709116
0.1440570368200019,0.023838829843668
0.1445453657583748,0.0237817200989904
0.1450336946967477,0.0908806313207596
0.1455220236351206,0.1355412408733398
0.1460103525734935,0.1527126702614858
0.1464986815118664,0.1670358260381838
0.1469870104502393,0.1882389860375493
0.1474753393886121,0.1973115972052052
0.147963668326985,0.1748068367093079
0.1484519972653579,0.1229146328358972
0.1489403262037308,0.0689151160110929
0.1494286551421037,0.0434763846934347
0.1499169840804766,0.0391886999132324
0.1504053130188495,0.0192138117607816
0.1508936419572223,0.0279349354020979
0.1513819708955952,0.0773937860366017
0.1518702998339681,0.1016545270668343
0.152358628772341,0.0950722805195644
0.1528469577107139,0.0744796682579109
0.1533352866490868,0.0603903782413527
0.1538236155874597,0.0582011253785994
0.1543119445258326,0.0552047612465643
0.1548002734642055,0.0402864995142684
0.1552886024025783,0.0234389531382242
0.1557769313409512,0.0182928546307172
0.1562652602793241,0.0224660224015875
0.156753589217697,0.029987229300095
0.1572419181560699,0.0370653672979963
0.1577302470944428,0.0361115455243756
0.1582185760328157,0.0283335164870843
0.1587069049711885,0.0222316615812111
0.1591952339095614,0.009707122527812
0.1596835628479343,0.0205294788811714
0.1601718917863072,0.052859951546043
0.1606602207246801,0.0642368148386268
0.161148549663053,0.0552059533916263
0.1616368786014259,0.0372424669169455
0.1621252075397988,0.015065928394729
0.1626135364781717,0.0049062734360919
0.1631018654165446,0.0089849758132174
0.1635901943549174,0.010215092633124
0.1640785232932903,0.0417875587753421
0.1645668522316632,0.0618216360620857
0.1650551811700361,0.0561428278327585
0.165543510108409,0.0401106977875713
0.1660318390467819,0.0306593611434014
0.1665201679851548,0.0165452625734523
0.1670084969235276,0.0083643885409676
0.1674968258619005,0.0297443067780156
0.1679851548002734,0.044069801238153
0.1684734837386463,0.0515139048733957
0.1689618126770192,0.0406177762604883
0.1694501416153921,0.024133028986994
0.169938470553765,0.0406694489203356
0.1704267994921379,0.0807298605358026
0.1709151284305108,0.0751558207861566
0.1714034573688836,0.0099977590389192
0.1718917863072565,0.0293988256923805
0.1723801152456294,0.0074083972932161
0.1728684441840023,0.0623641089775899
0.1733567731223752,0.0686959174666991
0.1738451020607481,0.0350888321147073
0.174333430999121,0.0159778924501317
0.1748217599374938,0.0305294504142991
0.1753100888758667,0.0440645420019433
0.1757984178142396,0.0290137149673337
0.1762867467526125,0.004978767762188
0.1767750756909854,0.0346648539040827
0.1772634046293583,0.0457528203873486
0.1777517335677312,0.0405306239245119
0.1782400625061041,0.0377497831875787
0.178728391444477,0.0574507001173305
0.1792167203828499,0.092372229941733
0.1797050493212227,0.1072473393241409
0.1801933782595956,0.0829684798848565
0.1806817071979685,0.0474727530294936
0.1811700361363414,0.0353020369470292
0.1816583650747143,0.0373162562734466
0.1821466940130872,0.0344204572550475
0.1826350229514601,0.0344076361724145
0.1831233518898329,0.0428635017058763
0.1836116808282058,0.050869228870088
0.1841000097665787,0.0466059430018174
0.1845883387049516,0.0173555031088778
0.1850766676433245,0.0340828722245611
0.1855649965816974,0.0783890831866542
0.1860533255200703,0.0897161044460317
0.1865416544584432,0.0790221851570198
0.1870299833968161,0.0753421273341903
0.1875183123351889,0.0871380538891856
0.1880066412735618,0.1008919323929905
0.1884949702119347,0.1033208579826343
0.1889832991503076,0.0973839916811419
0.1894716280886805,0.1007881119359601
0.1899599570270534,0.1223821640718706
0.1904482859654263,0.1435941673815851
0.1909366149037992,0.137571253314828
0.1914249438421721,0.1008017689596902
0.1919132727805449,0.0548990144806665
0.1924016017189178,0.0205315319721023
0.1928899306572907,0.0004450884729109
0.1933782595956636,0.0130457114745784
0.1938665885340365,0.0296001769734761
0.1943549174724094,0.0534808730590981
0.1948432464107823,0.0794110383391154
0.1953315753491551,0.0971301253266852
0.195819904287528,0.0941101129409486
0.1963082332259009,0.0734948735479565
0.1967965621642738,0.0580614017746074
0.1972848911026467,0.0503035367880812
0.1977732200410196,0.0325129945699848
0.1982615489793925,0.0128217042595216
0.1987498779177654,0.0106974646984825
0.1992382068561383,0.0165172027267639
0.1997265357945112,0.0233994602117036
0.200214864732884,0.0476471778072462
0.2007031936712569,0.0843555275878758
0.2011915226096298,0.1001991968573555
0.2016798515480027,0.0670116634282352
0.2021681804863756,0.0029244682641599
0.2026565094247485,0.0508351395871844
0.2031448383631214,0.0402147632575481
0.2036331673014942,0.0025739749878485
0.2041214962398671,0.0129061352562185
0.20460982517824,0.0065505991309002
0.2050981541166129,0.0390142775197758
0.2055864830549858,0.0606989523717371
0.2060748119933587,0.0698899022224175
0.2065631409317316,0.0766060164257305
0.2070514698701045,0.0780997870825051
0.2075397988084774,0.0649150437401416
0.2080281277468502,0.0459419979012976
0.2085164566852231,0.0326349335522501
0.209004785623596,0.0141452905667481
0.2094931145619689,0.0136234262744723
0.2099814435003418,0.0326014692381157
0.2104697724387147,0.0354712832803445
0.2109581013770876,0.0344304045110046
0.2114464303154604,0.040443213262453
0.2119347592538333,0.0502092045826268
0.2124230881922062,0.0568599743940805
0.2129114171305791,0.0743621144974917
0.213399746068952,0.1150084292396955
0.2138880750073249,0.1456489845997055
0.2143764039456978,0.1235522279220643
0.2148647328840707,0.0617054787784601
0.2153530618224436,0.0135449847398316
0.2158413907608165,0.003329193942595
0.2163297196991893,0.0093039485906839
0.2168180486375622,0.0164285768653711
0.2173063775759351,0.0260441641566909
0.217794706514308,0.0179746298926178
0.2182830354526809,0.0224930783166471
0.2187713643910538,0.0615799771647331
0.2192596933294266,0.0577928621838058
0.2197480222677995,0.0207671218692775
0.2202363512061724,0.0025050499898896
0.2207246801445453,0.0129237772820138
0.2212130090829182,0.0468779420296349
0.2217013380212911,0.0672324527512542
0.222189666959664,0.0685179371734978
0.2226779958980369,0.0697560152287401
0.2231663248364098,0.0786808083395228
0.2236546537747827,0.0793832355577571
0.2241429827131555,0.0618216414592541
0.2246313116515284,0.0379157776706089
0.2251196405899013,0.0243004189518366
0.2256079695282742,0.0248773539148433
0.2260962984666471,0.0295883641170352
0.22658462740502,0.0247371131920006
0.2270729563433929,0.0027223205650274
0.2275612852817658,0.0280664798208866
0.2280496142201386,0.0500584977687399
0.2285379431585115,0.0634863186059205
0.2290262720968844,0.0777264456002558
0.2295146010352573,0.0903948228548227
0.2300029299736302,0.1018832579682708
0.2304912589120031,0.1157285909345919
0.230979587850376,0.1265783987818028
0.2314679167887489,0.1259672055912033
0.2319562457271217,0.1013486197573469
0.2324445746654946,0.0471629320844971
0.2329329036038675,0.0150154502482813
0.2334212325422404,0.0478597106682756
0.2339095614806133,0.0340663000125561
0.2343978904189862,0.0065463193486582
0.2348862193573591,0.0128454290712807
0.235374548295732,0.0505737057936131
0.2358628772341049,0.0829989465661897
0.2363512061724778,0.0969026753776069
0.2368395351108506,0.1073519385748686
0.2373278640492235,0.1192722461509997
0.2378161929875964,0.1203615741342825
0.2383045219259693,0.1045050138460823
0.2387928508643422,0.0764389062652305
0.2392811798027151,0.0457545618047441
0.239769508741088,0.0230620649355584
0.2402578376794608,0.0129800471160799
0.2407461666178337,0.0140525938790721
0.2412344955562066,0.0240656632352888
0.2417228244945795,0.0407303858868792
0.2422111534329524,0.0575025692250564
0.2426994823713253,0.0580090956824919
0.2431878113096982,0.0261076275857275
0.2436761402480711,0.0258210935720033
0.244164469186444,0.0628431868382278
0.2446527981248168,0.0713520559904291
0.2451411270631897,0.066334127882917
0.2456294560015626,0.0640459136162968
0.2461177849399355,0.070040509296872
0.2466061138783084,0.0814983594780089
0.2470944428166813,0.0882640066778423
0.2475827717550542,0.0794083986197518
0.248071100693427,0.060844901835216
0.2485594296317999,0.0546143558914704
0.2490477585701728,0.0697748307295608
0.2495360875085457,0.0877734737228802
0.2500244164469186,0.0845241839372585
0.2505127453852915,0.0571345474078946
0.2510010743236644,0.0237032996322251
0.2514894032620373,0.0008974475555854
0.2519777322004102,0.0152232643652626
0.252466061138783,0.0214876432310023
0.252954390077156,0.0258564782587753
0.2534427190155288,0.0376551094652387
0.2539310479539017,0.0600533237012112
0.2544193768922746,0.0866235017735099
0.2549077058306475,0.1085647938742991
0.2553960347690204,0.11971456695443
0.2558843637073933,0.1178085835837943
0.2563726926457662,0.1114240925204556
0.2568610215841391,0.106612690135705
0.2573493505225119,0.0914406838164578
0.2578376794608848,0.059660559552277
0.2583260083992577,0.029203241677764
0.2588143373376306,0.0155437227982755
0.2593026662760035,0.0065557424471686
0.2597909952143764,0.0132529760405088
0.2602793241527493,0.0358972375689849
0.2607676530911221,0.0449511319472408
0.261255982029495,0.0275187082455047
0.2617443109678679,0.0159589672506757
0.2622326399062408,0.041569628946072
0.2627209688446137,0.0042307613433631
0.2632092977829866,0.0972784184745693
0.2636976267213595,0.1546682397235213
0.2641859556597324,0.1345318257216143
0.2646742845981052,0.0682338190775165
0.2651626135364782,0.0216211719276424
0.265650942474851,0.0312843858120703
0.2661392714132239,0.0722532405955125
0.2666276003515968,0.0957781657621959
0.2671159292899697,0.0810113775685529
0.2676042582283426,0.0517940730535505
0.2680925871667154,0.0429836821671269
0.2685809161050884,0.0529408488091208
0.2690692450434612,0.0580873125291998
0.2695575739818341,0.0462064743414944
0.270045902920207,0.0106210097272794
0.2705342318585799,0.0444143476300048
0.2710225607969528,0.0919239137679753
0.2715108897353257,0.1046558404863458
0.2719992186736986,0.0813938438588922
0.2724875476120715,0.0393666308963413
0.2729758765504443,0.0058564328124375
0.2734642054888173,0.0350360804277515
0.2739525344271901,0.0326315407713076
0.274440863365563,0.0149253343668439
0.2749291923039359,0.0097977199437737
0.2754175212423088,0.01594434572719
0.2759058501806817,0.0159826287353669
0.2763941791190546,0.0115890602569817
0.2768825080574275,0.0134031619071595
0.2773708369958003,0.0118796302729837
0.2778591659341732,0.0025193156984039
0.2783474948725461,0.0093038984086895
0.278835823810919,0.0145478654490648
0.2793241527492919,0.0575382379902684
0.2798124816876648,0.0839304788706155
0.2803008106260377,0.0783836683593279
0.2807891395644106,0.0660408782785715
0.2812774685027834,0.0674769878729775
0.2817657974411564,0.0688582144885186
0.2822541263795292,0.0595146957783474
0.2827424553179021,0.048908904869972
0.283230784256275,0.0346444821457343
0.2837191131946479,0.008393769975017
0.2842074421330208,0.0131707579803476
0.2846957710713937,0.0180430174704606
0.2851841000097666,0.0228232772107004
0.2856724289481395,0.0355691453623475
0.2861607578865123,0.0479788552852857
0.2866490868248852,0.0650281484427493
0.2871374157632581,0.0985541001432029
0.287625744701631,0.1439691076204143
0.2881140736400039,0.1820525751662114
0.2886024025783767,0.1899332100737884
0.2890907315167497,0.1622276173207182
0.2895790604551225,0.1220487160362482
0.2900673893934954,0.0879316834270794
0.2905557183318683,0.0610798918240879
0.2910440472702412,0.0453367908961786
0.2915323762086141,0.0402169345762715
0.292020705146987,0.0336614647784526
0.2925090340853599,0.0182906648271322
0.2929973630237328,0.0020789036258771
0.2934856919621056,0.0242885657335517
0.2939740209004786,0.0512191962144452
0.2944623498388514,0.0810764774297996
0.2949506787772243,0.1011226970672534
0.2954390077155972,0.1024552419577779
0.2959273366539701,0.0952405322951496
0.296415665592343,0.0906082786293196
0.2969039945307158,0.0829478010439763
0.2973923234690888,0.0685584993845758
0.2978806524074616,0.053823670629014
0.2983689813458345,0.0398506112304543
0.2988573102842074,0.0214193914810021
0.2993456392225803,0.0017021804873294
0.2998339681609532,0.0205339952980628
0.3003222970993261,0.026107070841699
0.300810626037699,0.0207945186299487
0.3012989549760719,0.0209345243864372
0.3017872839144447,0.0434262980642372
0.3022756128528177,0.0801992837942691
0.3027639417911905,0.1014950773364861
0.3032522707295634,0.0948285840265097
0.3037405996679363,0.0838092161577642
0.3042289286063092,0.0960352484565484
0.3047172575446821,0.1229276113903335
0.3052055864830549,0.1347869505544631
0.3056939154214279,0.1211377512599898
0.3061822443598007,0.0903607347725221
0.3066705732981736,0.054637911054541
0.3071589022365465,0.0258515160542637
0.3076472311749194,0.0064399202047046
0.3081355601132923,0.0051593852141525
0.3086238890516652,0.0048378760632871
0.3091122179900381,0.0006400407773775
0.309600546928411,0.0028693808498915
0.3100888758667838,0.0140558872093779
0.3105772048051567,0.0283565304189145
0.3110655337435296,0.0469863855868362
0.3115538626819025,0.0667066918580371
0.3120421916202754,0.0847755298395587
0.3125305205586483,0.0984687693520787
0.3130188494970212,0.1005148196678535
0.313507178435394,0.0912014987977501
0.3139955073737669,0.0808518522904632
0.3144838363121398,0.0706250018977546
0.3149721652505127,0.0516998104191046
0.3154604941888856,0.0279915839826311
0.3159488231272585,0.0094706973635099
0.3164371520656314,0.0080773104033874
0.3169254810040043,0.027383879813902
0.3174138099423771,0.0366202231938515
0.3179021388807501,0.0389263632751733
0.3183904678191229,0.0589779525394981
0.3188787967574958,0.0844271322012525
0.3193671256958687,0.06273207490846
0.3198554546342416,0.0090716419739944
0.3203437835726145,0.0593072397174152
0.3208321125109874,0.0314391373048841
0.3213204414493603,0.0424287612739822
0.3218087703877331,0.0901062024519677
0.322297099326106,0.0936426204164248
0.3227854282644789,0.0841513208585688
0.3232737572028518,0.0725537786724693
0.3237620861412247,0.0478262488040908
0.3242504150795976,0.0167031282973237
0.3247387440179705,0.0018518583850442
0.3252270729563434,0.0033221544021434
0.3257154018947162,0.0311622539856411
0.3262037308330892,0.0559104309148973
0.326692059771462,0.039599433655524
0.3271803887098349,0.0148165316634874
0.3276687176482078,0.0610263101670273
0.3281570465865807,0.0736284096931106
0.3286453755249536,0.0779304730605051
0.3291337044633265,0.1076591357977811
0.3296220334016994,0.1519949971638807
0.3301103623400723,0.1711924435257595
0.3305986912784451,0.1563291541645122
0.331087020216818,0.1328878024211475
0.3315753491551909,0.1259936980782509
0.3320636780935638,0.144733430006191
0.3325520070319367,0.1647852444796292
0.3330403359703096,0.1490727088477398
0.3335286649086825,0.1076598532904161
0.3340169938470553,0.0788036664144699
0.3345053227854282,0.0577873614311656
0.3349936517238011,0.0155070122351674
0.335481980662174,0.036742475127456
0.3359703096005469,0.0673808331908441
0.3364586385389198,0.0756366661067994
0.3369469674772927,0.076206996640895
0.3374352964156656,0.0762402860571606
0.3379236253540384,0.0850679007068701
0.3384119542924114,0.1077477422905252
0.3389002832307842,0.1312660043846757
0.3393886121691571,0.1368238845768995
0.33987694110753,0.1218235805433489
0.3403652700459029,0.1010190760931699
0.3408535989842758,0.084547905947472
0.3413419279226486,0.0637720804881123
0.3418302568610216,0.0294986247947252
0.3423185857993944,0.0067363572658196
0.3428069147377673,0.0267239563730047
0.3432952436761402,0.0260980639504644
0.3437835726145131,0.0171018030314736
0.344271901552886,0.0262306674826588
0.3447602304912589,0.0638668082717104
0.3452485594296318,0.0982075494096244
0.3457368883680047,0.100840640739561
0.3462252173063775,0.0846845522703966
0.3467135462447505,0.0718281090792774
0.3472018751831233,0.0690067323996828
0.3476902041214962,0.0729699722316818
0.3481785330598691,0.0745914720374724
0.348666861998242,0.0659107671216169
0.3491551909366149,0.0461850713020347
0.3496435198749877,0.0225200508829303
0.3501318488133607,0.0058199946969016
0.3506201777517335,0.0043632018808126
0.3511085066901064,0.0198315997891451
0.3515968356284793,0.0392950624910861
0.3520851645668522,0.0488852541304146
0.3525734935052251,0.0498658058609367
0.353061822443598,0.0554461759498542
0.3535501513819709,0.0658495128117984
0.3540384803203438,0.0721448264756572
0.3545268092587166,0.0742425313972375
0.3550151381970896,0.0860308202443311
0.3555034671354624,0.1197511131732307
0.3559917960738353,0.1466564584500445
0.3564801250122082,0.1120788018559609
0.3569684539505811,0.0327512915317791
0.357456782888954,0.0071671126703042
0.3579451118273268,0.0140545210265165
0.3584334407656998,0.037988003074174
0.3589217697040726,0.0233989412369407
0.3594100986424455,0.0114127697869364
0.3598984275808184,0.0291098226408545
0.3603867565191913,0.0294347351284108
0.3608750854575642,0.033323412439929
0.3613634143959371,0.0368679923482048
0.3618517433343099,0.0341865942841683
0.3623400722726829,0.0456684289504353
0.3628284012110557,0.0823926817081444
0.3633167301494286,0.1179325316584125
0.3638050590878015,0.1228847879108952
0.3642933880261744,0.100641316333663
0.3647817169645473,0.0702633496123741
0.3652700459029202,0.0385010007874346
0.3657583748412931,0.0065284397823804
0.3662467037796659,0.019213106631932
0.3667350327180388,0.036813202225005
0.3672233616564117,0.0452787770798709
0.3677116905947846,0.0400830249954402
0.3682000195331575,0.0291442403511489
0.3686883484715304,0.0296276783332544
0.3691766774099033,0.0451604349802828
0.3696650063482762,0.0588914831495635
0.370153335286649,0.0533531958311338
0.370641664225022,0.0383758401662722
0.3711299931633948,0.0410692248458027
0.3716183221017677,0.0604750456743563
0.3721066510401406,0.0695149735657707
0.3725949799785135,0.0605905798655438
0.3730833089168864,0.047032781567463
0.3735716378552593,0.0411278610077489
0.3740599667936322,0.0441368850983211
0.3745482957320051,0.0453422461594931
0.3750366246703779,0.0421073228732544
0.3755249536087508,0.0429757663866499
0.3760132825471237,0.0474476293452019
0.3765016114854966,0.0423541818284825
0.3769899404238695,0.0183388955043024
0.3774782693622424,0.0142926563841414
0.3779665983006153,0.034031234239429
0.3784549272389881,0.0315325447172208
0.3789432561773611,0.0209206653193288
0.3794315851157339,0.0363639708752657
0.3799199140541068,0.1001101561146541
0.3804082429924797,0.1730102942918608
0.3808965719308526,0.1850777104516827
0.3813849008692255,0.135691503274631
0.3818732298075984,0.096413789587206
0.3823615587459713,0.1039096662742045
0.3828498876843442,0.1177444454277626
0.383338216622717,0.0972178947378294
0.3838265455610899,0.0573687714770739
0.3843148744994628,0.0323238324967743
0.3848032034378357,0.0303549280413477
0.3852915323762086,0.0320059668088812
0.3857798613145815,0.0168893180940848
0.3862681902529544,0.0098544170321258
0.3867565191913272,0.0278734003205449
0.3872448481297001,0.0328845818635651
0.387733177068073,0.0422956735692318
0.3882215060064459,0.0710525228861084
0.3887098349448188,0.1117213393560285
0.3891981638831917,0.1423204178491195
0.3896864928215646,0.1490226506949514
0.3901748217599375,0.1368535439455825
0.3906631506983103,0.1189607545958877
0.3911514796366833,0.1055393754146045
0.3916398085750561,0.1016794048991844
0.392128137513429,0.1048849690223517
0.3926164664518019,0.1083031338225053
0.3931047953901748,0.1048693529399054
0.3935931243285477,0.0860698975946309
0.3940814532669205,0.047885146271484
0.3945697822052935,0.0020137316366859
0.3950581111436663,0.0326384570869245
0.3955464400820392,0.0522765473061725
0.3960347690204121,0.0580833996253519
0.396523097958785,0.0435858662874679
0.3970114268971579,0.0275687014633075
0.3974997558355308,0.0486239885261886
0.3979880847739037,0.1035275562269262
0.3984764137122766,0.1477312994762863
0.3989647426506494,0.1552937369740875
0.3994530715890224,0.138996346994999
0.3999414005273952,0.1227129012998633
0.4004297294657681,0.1146002825929835
0.400918058404141,0.107755105056019
0.4014063873425139,0.0940825590537088
0.4018947162808868,0.0672958581321553
0.4023830452192596,0.0266913974841635
0.4028713741576326,0.0180793583619236
0.4033597030960054,0.0508430806341886
0.4038480320343783,0.0639516055456172
0.4043363609727512,0.070561333456083
0.4048246899111241,0.0828068672088101
0.405313018849497,0.0969659095440875
0.4058013477878699,0.1149996122539705
0.4062896767262428,0.1335137333012021
0.4067780056646157,0.1150400337617672
0.4072663346029885,0.0425229554256249
0.4077546635413615,0.0181851101647275
0.4082429924797343,0.0064400348308726
0.4087313214181072,0.0334828902950814
0.4092196503564801,0.0364956551109018
0.409707979294853,0.0159694238529711
0.4101963082332259,0.0101332901870954
0.4106846371715988,0.013918491252595
0.4111729661099716,0.0068778967827638
0.4116612950483445,0.0107624762217008
0.4121496239867174,0.0271970027677927
0.4126379529250903,0.0346905456560672
0.4131262818634632,0.0382026813736453
0.4136146108018361,0.0501972529819697
0.414102939740209,0.0721880924628992
0.4145912686785818,0.0922424162696927
0.4150795976169548,0.101785926525684
0.4155679265553276,0.1024666084027376
0.4160562554937005,0.0976853441314066
0.4165445844320734,0.0879351042809277
0.4170329133704463,0.0744849038835951
0.4175212423088192,0.0588978546062797
0.4180095712471921,0.0413604142526033
0.418497900185565,0.0233620417709249
0.4189862291239379,0.0040155875946095
0.4194745580623107,0.0187984441700649
0.4199628870006836,0.0419382196981864
0.4204512159390565,0.0615633800503056
0.4209395448774294,0.0740011080670084
0.4214278738158023,0.0783330005695935
0.4219162027541752,0.0852435692081572
0.4224045316925481,0.1037061108606005
0.4228928606309209,0.1281333621639129
0.4233811895692939,0.1489249391060671
0.4238695185076667,0.1570215366616953
0.4243578474460396,0.1503041507370115
0.4248461763844125,0.1435656129827861
0.4253345053227854,0.1466323902040566
0.4258228342611583,0.1375434317268216
0.4263111631995312,0.0814389669710034
0.4267994921379041,0.0165742527298144
0.427287821076277,0.0998772089243831
0.4277761500146498,0.1250405311875767
0.4282644789530228,0.1116639644534666
0.4287528078913956,0.1023662047267325
0.4292411368297685,0.1053911626099986
0.4297294657681414,0.103017361306778
0.4302177947065143,0.0904895653351702
0.4307061236448872,0.0823507120509509
0.43119445258326,0.0851080197869636
0.431682781521633,0.0853053195984483
0.4321711104600058,0.0670925852953446
0.4326594393983787,0.0321024961743353
0.4331477683367516,6.153346867739107e-05
0.4336360972751245,0.014815092131144
0.4341244262134974,0.0074179573752554
0.4346127551518703,0.0266770599609561
0.4351010840902432,0.0724424300994035
0.4355894130286161,0.0969592835108739
0.4360777419669889,0.0865983094337391
0.4365660709053618,0.0540752432317562
0.4370543998437347,0.0083516570068676
0.4375427287821076,0.047753883025333
0.4380310577204805,0.0916820061327339
0.4385193866588533,0.0964811504110285
0.4390077155972263,0.0766307813739007
0.4394960445355991,0.0677954515910909
0.439984373473972,0.0723405324767275
0.4404727024123449,0.0735788787507216
0.4409610313507178,0.0685524741785586
0.4414493602890907,0.0586740835273597
0.4419376892274636,0.0430487815325083
0.4424260181658365,0.0296062264287941
0.4429143471042094,0.028789791693308
0.4434026760425822,0.0347747261540601
0.4438910049809552,0.034047993673681
0.444379333919328,0.0272381117799347
0.4448676628577009,0.0225362721587317
0.4453559917960738,0.0145694526085697
0.4458443207344467,0.0055983914040682
0.4463326496728196,0.0270239810016408
0.4468209786111924,0.0351785917219325
0.4473093075495654,0.0353328194959357
0.4477976364879382,0.0387318269067313
0.4482859654263111,0.0432868874942873
0.448774294364684,0.0396166236535974
0.4492626233030569,0.0312079326958336
0.4497509522414298,0.0336261639277376
0.4502392811798027,0.0483015713792707
0.4507276101181756,0.0621853231449252
0.4512159390565485,0.0746193506546895
0.4517042679949213,0.0928401968159401
0.4521925969332943,0.1071476651885914
0.4526809258716671,0.0992158807408618
0.45316925481004,0.0674295922664739
0.4536575837484129,0.0265317563001288
0.4541459126867858,0.0115079662140975
0.4546342416251587,0.0416663653744905
0.4551225705635316,0.054834231010258
0.4556108995019045,0.0482600195137284
0.4560992284402773,0.0401702895424764
0.4565875573786502,0.0512806477167407
0.4570758863170231,0.0830120747045848
0.457564215255396,0.1157385202818101
0.4580525441937689,0.1281209924080511
0.4585408731321418,0.1208697568725063
0.4590292020705147,0.1038058236856337
0.4595175310088876,0.0744410582568714
0.4600058599472604,0.0317000218404984
0.4604941888856333,0.0156467734223582
0.4609825178240062,0.0605483964847949
0.4614708467623791,0.0942036371357364
0.461959175700752,0.1034838996075428
0.4624475046391249,0.090563551590695
0.4629358335774978,0.0757964788219213
0.4634241625158707,0.0691539103745009
0.4639124914542435,0.0611959004340613
0.4644008203926164,0.0461867105159773
0.4648891493309893,0.0320614771124988
0.4653774782693622,0.0290223231473211
0.4658658072077351,0.0389505245402104
0.466354136146108,0.0504174866672265
0.4668424650844809,0.0482511854731762
0.4673307940228537,0.0320931555989315
0.4678191229612267,0.0081513450781552
0.4683074518995995,0.0237375741692104
0.4687957808379724,0.0455780391662946
0.4692841097763453,0.0272421605168148
0.4697724387147182,0.0233288309389275
0.4702607676530911,0.0648699651192709
0.470749096591464,0.0710559065816094
0.4712374255298369,0.0404921481466363
0.4717257544682098,0.0153375174665217
0.4722140834065826,0.0705871043967258
0.4727024123449556,0.1035703502800884
0.4731907412833284,0.1190496594214716
0.4736790702217013,0.1299077911876101
0.4741673991600742,0.1349053126138221
0.4746557280984471,0.12772541495305
0.47514405703682,0.1137333506561869
0.4756323859751928,0.1024829976694443
0.4761207149135658,0.0920884706600486
0.4766090438519386,0.0737221794840831
0.4770973727903115,0.037764760155339
0.4775857017286844,0.0179569096065026
0.4780740306670573,0.0714170291984664
0.4785623596054302,0.0959270207925352
0.4790506885438031,0.0971804802490302
0.479539017482176,0.0990673269266686
0.4800273464205489,0.1027954206165101
0.4805156753589217,0.0920010230040155
0.4810040042972947,0.0727385486821227
0.4814923332356675,0.0670940436519798
0.4819806621740404,0.0734370251371605
0.4824689911124133,0.0715206781987041
0.4829573200507862,0.0539343607934863
0.4834456489891591,0.0314498185277776
0.4839339779275319,0.0181045485889306
0.4844223068659049,0.0220260862200819
0.4849106358042777,0.0402754983815189
0.4853989647426506,0.0549909358681231
0.4858872936810235,0.051238683754232
0.4863756226193964,0.0316081648941666
0.4868639515577693,0.0026976363021007
0.4873522804961422,0.0277109143387036
0.487840609434515,0.0448241493661744
0.488328938372888,0.0411373528869593
0.4888172673112608,0.030428264799597
0.4893055962496337,0.0345692769910322
0.4897939251880066,0.0590810661324402
0.4902822541263795,0.0901982678223324
0.4907705830647524,0.1092784515729754
0.4912589120031252,0.106935094611555
0.4917472409414982,0.0842051611008223
0.492235569879871,0.0494139956908049
0.4927238988182439,0.0233851340061215
0.4932122277566168,0.0171741502747144
0.4937005566949897,0.0117797629739112
0.4941888856333626,0.0049104584557851
0.4946772145717355,0.0218239619360214
0.4951655435101084,0.0346606787515001
0.4956538724484813,0.0450903798319647
0.4961422013868541,0.0452493136502252
0.4966305303252271,0.0266590576097652
0.4971188592635999,0.0007078296462904
0.4976071882019728,0.009335402090403
0.4980955171403457,0.0092252738248834
0.4985838460787186,0.0331953410219443
0.4990721750170915,0.0415414878331473
0.4995605039554644,0.0293536087047224
0.5000488328938373,0.014325860937239
0.5005371618322102,0.0207540497942151
0.501025490770583,0.036665730334027
0.5015138197089559,0.0319745947522215
0.5020021486473288,0.0096871776755748
0.5024904775857018,0.0105916280038658
0.5029788065240746,0.0243951383253051
0.5034671354624475,0.0303413058122522
0.5039554644008204,0.0228935344793099
0.5044437933391933,0.0092083103734593
0.5049321222775661,0.0068663538165365
0.505420451215939,0.0185649968616024
0.505908780154312,0.0356524486442226
0.5063971090926849,0.0593681827249278
0.5068854380310577,0.0846057387641745
0.5073737669694306,0.0944772909436077
0.5078620959078035,0.0936469415732269
0.5083504248461764,0.0976392405679968
0.5088387537845492,0.1013335336565757
0.5093270827229222,0.0943018649608241
0.5098154116612951,0.0817619661284639
0.5103037405996679,0.0695809433207124
0.5107920695380408,0.047271736106806
0.5112803984764137,0.0068830261657767
0.5117687274147866,0.0371560452553284
0.5122570563531594,0.0619597160889888
0.5127453852915324,0.0611604299064241
0.5132337142299053,0.0519590208581647
0.5137220431682782,0.058065178084994
0.514210372106651,0.0818471389589301
0.5146987010450239,0.0990543606116575
0.5151870299833968,0.0889650036952866
0.5156753589217697,0.0606140333825505
0.5161636878601426,0.0398581360560965
0.5166520167985155,0.0406086912670156
0.5171403457368884,0.0548517725861247
0.5176286746752613,0.0624318523821557
0.5181170036136341,0.0569979246397563
0.518605332552007,0.0476029087139235
0.5190936614903799,0.032097952732142
0.5195819904287527,0.0044198432868444
0.5200703193671257,0.0277062389198846
0.5205586483054986,0.0538765377255109
0.5210469772438715,0.072517228237933
0.5215353061822443,0.0836125950646022
0.5220236351206172,0.0830856118243152
0.5225119640589901,0.0777359295236764
0.5230002929973631,0.083543430516819
0.5234886219357359,0.0964641404746999
0.5239769508741088,0.0933481855730214
0.5244652798124817,0.0679829549422408
0.5249536087508546,0.0416232025943284
0.5254419376892274,0.0313024425564673
0.5259302666276003,0.0349889846238779
0.5264185955659733,0.0485337813908198
0.5269069245043461,0.0635425661050744
0.527395253442719,0.0674616876619106
0.5278835823810919,0.0601372773495492
0.5283719113194648,0.0398707046455932
0.5288602402578376,0.0050924632019174
0.5293485691962105,0.0650835389674445
0.5298368981345835,0.1007152836565517
0.5303252270729564,0.0919421020081282
0.5308135560113292,0.0708012724361533
0.5313018849497021,0.0765140738033366
0.531790213888075,0.1065943381666263
0.5322785428264479,0.1331179902419239
0.5327668717648207,0.1369028532584351
0.5332552007031937,0.1167739018077698
0.5337435296415666,0.0864458966754822
0.5342318585799395,0.0674498877540067
0.5347201875183123,0.0682704505623834
0.5352085164566852,0.068420946339968
0.5356968453950581,0.0479824296045572
0.5361851743334309,0.0226169397923622
0.5366735032718039,0.0139831063732953
0.5371618322101768,0.0137987927572597
0.5376501611485497,0.0082376169289024
0.5381384900869225,0.0007301627617703
0.5386268190252954,0.0091345961061291
0.5391151479636683,0.0335600062010238
0.5396034769020412,0.0649625936870543
0.540091805840414,0.0786575933391249
0.540580134778787,0.0756101974798305
0.5410684637171599,0.073334263884783
0.5415567926555328,0.0674034202524272
0.5420451215939056,0.0435697828032996
0.5425334505322785,0.0130115876701371
0.5430217794706514,0.0025011487188869
0.5435101084090244,0.0104503286166955
0.5439984373473972,0.0068340797167412
0.5444867662857701,0.0216477282213217
0.544975095224143,0.0573113412835509
0.5454634241625158,0.0769420850977877
0.5459517531008887,0.0735249461620243
0.5464400820392616,0.0607963148760448
0.5469284109776346,0.0591988477623608
0.5474167399160074,0.0694445352688729
0.5479050688543803,0.0699214713167504
0.5483933977927532,0.0487695904418122
0.5488817267311261,0.0263093191775553
0.5493700556694989,0.0324480350960885
0.5498583846078718,0.0635557812711825
0.5503467135462448,0.0823307453252361
0.5508350424846177,0.0630853912749474
0.5513233714229905,0.0178619377335347
0.5518117003613634,0.0218228191792197
0.5523000292997363,0.0380398634980062
0.5527883582381092,0.0369208632181895
0.553276687176482,0.0348978555502472
0.553765016114855,0.0421871861179825
0.5542533450532279,0.0569468115856641
0.5547416739916007,0.074605720175742
0.5552300029299736,0.0916324454414926
0.5557183318683465,0.1017839068700763
0.5562066608067194,0.1017655869993024
0.5566949897450922,0.0928310136236551
0.5571833186834652,0.074697712270904
0.5576716476218381,0.0463430989562253
0.558159976560211,0.01322870282818
0.5586483054985838,0.0136214580116866
0.5591366344369567,0.0235382144125664
0.5596249633753296,0.0108357803430858
0.5601132923137025,0.0114011774654636
0.5606016212520754,0.0149901141553489
0.5610899501904483,0.007290813518913
0.5615782791288212,0.033754137446368
0.5620666080671941,0.0527696331386822
0.5625549370055669,0.0760056340398067
0.5630432659439398,0.1043458002603214
0.5635315948823127,0.1148471152972423
0.5640199238206856,0.0908886228430823
0.5645082527590585,0.0440283473878742
0.5649965816974314,0.0103635629715976
0.5654849106358043,0.0172938079376629
0.5659732395741771,0.0467477385990856
0.56646156851255,0.0618959944915866
0.566949897450923,0.049637493425721
0.5674382263892959,0.0207515525824367
0.5679265553276687,0.0058709222151857
0.5684148842660416,0.0221277558052379
0.5689032132044145,0.0307917173738168
0.5693915421427874,0.0345785445313676
0.5698798710811602,0.0397640969354333
0.5703682000195331,0.0514230955804329
0.5708565289579061,0.0669669804495696
0.571344857896279,0.0788899645330193
0.5718331868346518,0.0790839070366113
0.5723215157730247,0.078397912069033
0.5728098447113976,0.0998092048327903
0.5732981736497704,0.1306044705402058
0.5737865025881433,0.1299519787513212
0.5742748315265163,0.0925100233084157
0.5747631604648892,0.052055676075913
0.575251489403262,0.0260420829559979
0.5757398183416349,0.0060803604437317
0.5762281472800078,0.011523309336922
0.5767164762183807,0.025074450139786
0.5772048051567535,0.0334300611066934
0.5776931340951265,0.033991544915632
0.5781814630334994,0.0305165283397
0.5786697919718723,0.0264307693314685
0.5791581209102451,0.0223298271151319
0.579646449848618,0.024374273091415
0.5801347787869909,0.0286912406337783
0.5806231077253637,0.0292318633651867
0.5811114366637367,0.038085257963415
0.5815997656021096,0.057158928236988
0.5820880945404825,0.0678328004152414
0.5825764234788553,0.0614559197101489
0.5830647524172282,0.0492336872285607
0.5835530813556011,0.0434414960544006
0.584041410293974,0.0393231681104534
0.5845297392323469,0.0251741705928338
0.5850180681707198,0.0018041380331757
0.5855063971090927,0.0232293748799532
0.5859947260474656,0.048513287803504
0.5864830549858384,0.0692759690498253
0.5869713839242113,0.0693445573149179
0.5874597128625842,0.0474747275221811
0.5879480418009572,0.031101044902173
0.58843637073933,0.0391924122063865
0.5889246996777029,0.0566458314351835
0.5894130286160758,0.0566744390559841
0.5899013575544486,0.0363552421020971
0.5903896864928215,0.0224222110351991
0.5908780154311944,0.032047796986412
0.5913663443695674,0.0533197287284039
0.5918546733079402,0.0771181540736194
0.5923430022463131,0.101563486355212
0.592831331184686,0.1073078265386604
0.5933196601230589,0.0772550655445801
0.5938079890614317,0.0293986198873582
0.5942963179998046,0.0023708196039314
0.5947846469381776,0.012501745676591
0.5952729758765505,0.0267852076582401
0.5957613048149233,0.0565119704426885
0.5962496337532962,0.0819300806707474
0.5967379626916691,0.0921818658932102
0.597226291630042,0.0952040747631454
0.5977146205684148,0.095684907278937
0.5982029495067878,0.0977991843539738
0.5986912784451607,0.1032422104419427
0.5991796073835335,0.1051343215896815
0.5996679363219064,0.0968064216876113
0.6001562652602793,0.0766029610007098
0.6006445941986522,0.0497261467816618
0.601132923137025,0.0281452757636563
0.601621252075398,0.0245708647283555
0.6021095810137709,0.037223102189681
0.6025979099521438,0.045334746049841
0.6030862388905166,0.0382371911540801
0.6035745678288895,0.0255348406433403
0.6040628967672624,0.0100718513930511
0.6045512257056354,0.0162474864135338
0.6050395546440082,0.0548079505365504
0.6055278835823811,0.0924752677410618
0.606016212520754,0.1072159818010685
0.6065045414591269,0.0919854364200617
0.6069928703974997,0.0663859042429279
0.6074811993358726,0.0528315609922458
0.6079695282742456,0.0572885931856702
0.6084578572126184,0.0674582546504591
0.6089461861509913,0.0621343119269585
0.6094345150893642,0.0335882648798698
0.6099228440277371,0.0008264776392242
0.6104111729661099,0.016089882035395
0.6108995019044828,0.0126039968145812
0.6113878308428558,0.013194274547235
0.6118761597812287,0.0261020354430981
0.6123644887196015,0.038133797073931
0.6128528176579744,0.0376834167530605
0.6133411465963473,0.0305978105850892
0.6138294755347202,0.0335345388622156
0.614317804473093,0.0491263171438002
0.614806133411466,0.061093715669258
0.6152944623498389,0.057669026803133
0.6157827912882118,0.0427637835153539
0.6162711202265846,0.0234135961323558
0.6167594491649575,0.0017980413368826
0.6172477781033304,0.0134064718303978
0.6177361070417032,0.0120306792027515
0.6182244359800761,0.0031430761525697
0.6187127649184491,0.0007679864294734
0.619201093856822,0.0117955570120142
0.6196894227951948,0.0481821854424442
0.6201777517335677,0.0963304315483257
0.6206660806719406,0.1126922614936034
0.6211544096103135,0.0716962036049044
0.6216427385486863,0.0014056254319896
0.6221310674870593,0.0521440322871703
0.6226193964254322,0.0784829360472145
0.6231077253638051,0.0920447895169546
0.6235960543021779,0.0968743511028837
0.6240843832405508,0.0901774889531943
0.6245727121789237,0.0778332460222171
0.6250610411172965,0.0650648672569338
0.6255493700556695,0.0497591004218854
0.6260376989940424,0.0318110163012072
0.6265260279324153,0.0148902552943344
0.6270143568707881,0.0028497539924915
0.627502685809161,0.0001085809184058
0.6279910147475339,0.004818564451919
0.6284793436859069,0.0057334225296635
0.6289676726242797,0.0059615219642006
0.6294560015626526,0.0240298353316058
0.6299443305010255,0.0328351953180158
0.6304326594393984,0.024172356547245
0.6309209883777712,0.0099805843153905
0.6314093173161441,0.0070250706277145
0.631897646254517,0.0187882416482603
0.63238597519289,0.0343318789877942
0.6328743041312628,0.0465868613476922
0.6333626330696357,0.063988091945021
0.6338509620080086,0.0859334866458327
0.6343392909463814,0.0951872244195265
0.6348276198847543,0.0823791119566868
0.6353159488231273,0.0551922683917858
0.6358042777615002,0.0254196490687419
0.636292606699873,0.0025478919281615
0.6367809356382459,0.0291751219182426
0.6372692645766188,0.0533306309577895
0.6377575935149917,0.0701297654241507
0.6382459224533645,0.0793088156324281
0.6387342513917375,0.0874399709878353
0.6392225803301104,0.0924626476621501
0.6397109092684833,0.0898274413482975
0.6401992382068561,0.0896944320752492
0.640687567145229,0.1032532740365189
0.6411758960836019,0.1251554042990994
0.6416642250219748,0.1392168013032529
0.6421525539603476,0.1340193452930515
0.6426408828987206,0.1113376402088417
0.6431292118370935,0.0815271379524925
0.6436175407754663,0.0544996706883282
0.6441058697138392,0.034839081142229
0.6445941986522121,0.0219918747248994
0.645082527590585,0.0094117939620785
0.6455708565289578,0.0139811282294393
0.6460591854673308,0.0490958637165466
0.6465475144057037,0.0796462276371449
0.6470358433440766,0.0930772072744822
0.6475241722824494,0.098859656157231
0.6480125012208223,0.1099644810225322
0.6485008301591952,0.1206333050153165
0.6489891590975682,0.1217107614651135
0.649477488035941,0.117596246973453
0.6499658169743139,0.110474325662577
0.6504541459126868,0.0912726969584679
0.6509424748510597,0.060327295963763
0.6514308037894325,0.0328561436108221
0.6519191327278054,0.0154187752609917
0.6524074616661784,0.0025599069571692
0.6528957906045512,0.0010281938659564
0.6533841195429241,0.0094829014059564
0.653872448481297,0.0140775966372936
0.6543607774196699,0.0064368947952248
0.6548491063580427,0.0383059150367019
0.6553374352964156,0.0568615970380987
0.6558257642347886,0.059376189477229
0.6563140931731615,0.0621816959535635
0.6568024221115343,0.0754115695323167
0.6572907510499072,0.0893530204202097
0.6577790799882801,0.0847998241815172
0.658267408926653,0.057461847534083
0.6587557378650258,0.0299551624422619
0.6592440668033988,0.0245292159889148
0.6597323957417717,0.0310240976219582
0.6602207246801446,0.02660655121546
0.6607090536185174,0.0139524059614057
0.6611973825568903,0.006900232780145
0.6616857114952632,0.0022853917762577
0.662174040433636,0.0089668955912234
0.662662369372009,0.0293051075961679
0.6631506983103819,0.0558802454026588
0.6636390272487548,0.0854702501922833
0.6641273561871276,0.1149616459175751
0.6646156851255005,0.1304420931971742
0.6651040140638734,0.1204305984668565
0.6655923430022463,0.097017082872268
0.6660806719406192,0.0758702112693474
0.6665690008789921,0.0586678172718765
0.667057329817365,0.0456071709368196
0.6675456587557379,0.0369606256996737
0.6680339876941107,0.0275880621358066
0.6685223166324836,0.0094687740266951
0.6690106455708565,0.0212696882620067
0.6694989745092295,0.0404876861575766
0.6699873034476023,0.017017200240322
0.6704756323859752,0.0233186964518875
0.6709639613243481,0.0282920096752581
0.6714522902627209,0.0035023751853948
0.6719406192010938,0.037457101333126
0.6724289481394667,0.0570425573063292
0.6729172770778397,0.0713326498447418
0.6734056060162125,0.0867440763463122
0.6738939349545854,0.0979831320944727
0.6743822638929583,0.1045313447930452
0.6748705928313312,0.1030829101075227
0.675358921769704,0.0837749138113682
0.6758472507080769,0.0580934275137387
0.6763355796464499,0.0493175201010768
0.6768239085848228,0.0558912629509067
0.6773122375231956,0.0538013045461477
0.6778005664615685,0.0249822369567101
0.6782888953999414,0.0187474125876742
0.6787772243383142,0.0497607150270469
0.6792655532766871,0.0639564650212603
0.6797538822150601,0.0809750882938386
0.680242211153433,0.1135016274772701
0.6807305400918058,0.1458970000490306
0.6812188690301787,0.1511163752241165
0.6817071979685516,0.1362068632400838
0.6821955269069245,0.1304616285531299
0.6826838558452973,0.1282055247351057
0.6831721847836703,0.1057822094654767
0.6836605137220432,0.0721019036246581
0.6841488426604161,0.0483785567532445
0.6846371715987889,0.0351274498634505
0.6851255005371618,0.0255391265974489
0.6856138294755347,0.0198431511333716
0.6861021584139076,0.0118392184692778
0.6865904873522805,0.0127817297983298
0.6870788162906534,0.0459399033945774
0.6875671452290263,0.0610733325819629
0.6880554741673991,0.0597538576049835
0.688543803105772,0.0682117913827002
0.6890321320441449,0.0945260973739116
0.6895204609825178,0.1250572594655255
0.6900087899208907,0.1453539696700669
0.6904971188592636,0.1488090663029366
0.6909854477976365,0.1348861893721062
0.6914737767360094,0.1101575939266245
0.6919621056743822,0.0839629055211104
0.6924504346127551,0.0582162934986563
0.692938763551128,0.0338166595377677
0.693427092489501,0.0179213362731482
0.6939154214278738,0.0114928257693413
0.6944037503662467,0.0004134588437715
0.6948920793046196,0.0177537189099334
0.6953804082429925,0.0216161938148838
0.6958687371813653,0.0133973700430388
0.6963570661197382,0.0244235982626803
0.6968453950581112,0.0553997702676133
0.697333723996484,0.0762354142529675
0.6978220529348569,0.0773724393244747
0.6983103818732298,0.0737554046087994
0.6987987108116027,0.0798138866421094
0.6992870397499755,0.0962023603458013
0.6997753686883484,0.1061028399771854
0.7002636976267214,0.1016388906449294
0.7007520265650943,0.0943001842067584
0.7012403555034671,0.0810063338760442
0.70172868444184,0.0499739193611322
0.7022170133802129,0.0113140359654517
0.7027053423185858,0.0148138295907879
0.7031936712569586,0.0220198181581518
0.7036820001953316,0.019179729538699
0.7041703291337045,0.018024395278717
0.7046586580720774,0.0274808410852906
0.7051469870104502,0.0515411480617366
0.7056353159488231,0.081360611730342
0.706123644887196,0.1039762015914006
0.7066119738255688,0.1189665039509233
0.7071003027639418,0.1293420976059369
0.7075886317023147,0.1259127631068418
0.7080769606406876,0.1036404905860966
0.7085652895790604,0.084294838153002
0.7090536185174333,0.0909307026201211
0.7095419474558062,0.107636703698832
0.7100302763941791,0.0971679445803144
0.710518605332552,0.0511528498494244
0.7110069342709249,0.00084170403185
0.7114952632092978,0.0292823751935105
0.7119835921476707,0.032835567815298
0.7124719210860435,0.0272377545638303
0.7129602500244164,0.0275195019638614
0.7134485789627893,0.0375425605454929
0.7139369079011623,0.0428069281645825
0.7144252368395351,0.0339116932737366
0.714913565777908,0.0294365675378295
0.7154018947162809,0.043422549192345
0.7158902236546537,0.0613236341794306
0.7163785525930266,0.0740529094785701
0.7168668815313995,0.0893979181499459
0.7173552104697725,0.1030810287444851
0.7178435394081453,0.1057692531475251
0.7183318683465182,0.1036106411410354
0.7188201972848911,0.0967728341940743
0.719308526223264,0.067607963076844
0.7197968551616368,0.0153312260521254
0.7202851841000097,0.0323759600137802
0.7207735130383827,0.0579962951946701
0.7212618419767556,0.0707307739400022
0.7217501709151284,0.0856039700220695
0.7222384998535013,0.1017915657742951
0.7227268287918742,0.0985290712318667
0.7232151577302471,0.0676852298551167
0.7237034866686199,0.0390566719683666
0.7241918156069929,0.0398452773953214
0.7246801445453658,0.0528149956906135
0.7251684734837386,0.0518263831806267
0.7256568024221115,0.0436524463437382
0.7261451313604844,0.0453312364485284
0.7266334602988573,0.0610010807980531
0.7271217892372301,0.0824477128726094
0.7276101181756031,0.088210568907461
0.728098447113976,0.0658084330886604
0.7285867760523489,0.027506038931959
0.7290751049907217,0.0160835386850888
0.7295634339290946,0.0651242108247645
0.7300517628674675,0.1052626661848672
0.7305400918058405,0.1120435861508594
0.7310284207442133,0.0878635411547053
0.7315167496825862,0.0639420360460805
0.7320050786209591,0.0629727247788526
0.7324934075593319,0.076902829746713
0.7329817364977048,0.0795702241894958
0.7334700654360777,0.0657086451268702
0.7339583943744507,0.0635683300058984
0.7344467233128235,0.0831993961203936
0.7349350522511964,0.0928674222356794
0.7354233811895693,0.0728995287753
0.7359117101279422,0.0406160047743083
0.736400039066315,0.0199978034984925
0.7368883680046879,0.0206346181554557
0.7373766969430608,0.030784095435752
0.7378650258814338,0.0291155261079506
0.7383533548198066,0.0057724538915314
0.7388416837581795,0.0297155128256259
0.7393300126965524,0.0539756605520479
0.7398183416349253,0.0602870459718055
0.7403066705732981,0.0687713159592358
0.740794999511671,0.087860519423374
0.741283328450044,0.1016817564412013
0.7417716573884168,0.1027836994569084
0.7422599863267897,0.1004368160100125
0.7427483152651626,0.0965954537379157
0.7432366442035355,0.084542542250524
0.7437249731419083,0.0664160693314215
0.7442133020802812,0.0526991884654311
0.7447016310186542,0.0461943610348369
0.7451899599570271,0.0341020038262529
0.7456782888953999,0.0010825390361991
0.7461666178337728,0.0455912263305575
0.7466549467721457,0.0750477689264212
0.7471432757105186,0.0768492603542935
0.7476316046488914,0.0766620717619706
0.7481199335872644,0.0829556450671288
0.7486082625256373,0.0715942979116775
0.7490965914640102,0.0409349703534416
0.749584920402383,0.0233940201024451
0.7500732493407559,0.0324721115694784
0.7505615782791288,0.0472300433207279
0.7510499072175016,0.0528322249392631
0.7515382361558746,0.0522906435992482
0.7520265650942475,0.0466794783816074
0.7525148940326204,0.0403323113885689
0.7530032229709932,0.0435119748647059
0.7534915519093661,0.054608756400795
0.753979880847739,0.0571006175102427
0.754468209786112,0.0365942666418063
0.7549565387244848,0.0017663466117101
0.7554448676628577,0.0352007961156792
0.7559331966012306,0.0478039550160767
0.7564215255396035,0.0496801995007236
0.7569098544779763,0.0585324584852998
0.7573981834163492,0.0738673288673788
0.7578865123547222,0.0816583954237281
0.7583748412930951,0.0733918469240217
0.7588631702314679,0.0575542572103025
0.7593514991698408,0.0488045853013077
0.7598398281082137,0.0470421182390844
0.7603281570465865,0.0390101701547273
0.7608164859849594,0.0205510360269468
0.7613048149233324,0.0025783683239327
0.7617931438617053,0.0063569316961734
0.7622814728000781,0.00855069277964
0.762769801738451,0.0074281889744588
0.7632581306768239,0.003791078823984
0.7637464596151968,0.005399102403013
0.7642347885535696,0.0237039373992704
0.7647231174919426,0.0544219169524295
0.7652114464303155,0.0784593307324446
0.7656997753686884,0.0868124563891247
0.7661881043070612,0.0881082649917099
0.7666764332454341,0.0873771853287828
0.767164762183807,0.0739054891499233
0.7676530911221799,0.0450213298353499
0.7681414200605527,0.0221497357700553
0.7686297489989257,0.0217037823964094
0.7691180779372986,0.0321893090001887
0.7696064068756714,0.0322264342757205
0.7700947358140443,0.0123020992669755
0.7705830647524172,0.0190923638077936
0.7710713936907901,0.0418983307530588
0.771559722629163,0.0521637088502346
0.7720480515675359,0.0690574363865701
0.7725363805059088,0.094086545377132
0.7730247094442817,0.101255703899725
0.7735130383826545,0.0845450827213981
0.7740013673210274,0.0669450110464776
0.7744896962594003,0.0610509745174062
0.7749780251977733,0.0672882295501918
0.7754663541361461,0.0828698192626364
0.775954683074519,0.0884650537489621
0.7764430120128919,0.0684076678968025
0.7769313409512647,0.0329591886945015
0.7774196698896376,1.82570888375283e-05
0.7779079988280105,0.0168984585145298
0.7783963277663835,0.008638779875697
0.7788846567047563,0.0155414445692048
0.7793729856431292,0.0255523532458451
0.7798613145815021,0.0034134593139284
0.780349643519875,0.0322343005398869
0.7808379724582478,0.0477952570641874
0.7813263013966207,0.0335048281062121
0.7818146303349937,0.0135324526554677
0.7823029592733666,0.0137038142727319
0.7827912882117394,0.0297980219433393
0.7832796171501123,0.0414020258634524
0.7837679460884852,0.0398689872957005
0.7842562750268581,0.031341081473299
0.7847446039652309,0.0326607353112031
0.7852329329036039,0.0535081126332163
0.7857212618419768,0.0681198731925741
0.7862095907803496,0.0450030872336462
0.7866979197187225,0.0033123361963407
0.7871862486570954,0.0160671086743157
0.7876745775954683,0.0147856790872225
0.7881629065338411,0.0225610854991301
0.788651235472214,0.0452662598525838
0.789139564410587,0.0602251174927583
0.7896278933489599,0.0542898135752698
0.7901162222873327,0.0437877946839609
0.7906045512257056,0.0470638783027827
0.7910928801640785,0.0617448764125863
0.7915812091024514,0.0769091046714972
0.7920695380408243,0.081247146036881
0.7925578669791972,0.0675655502037005
0.7930461959175701,0.0442386226709383
0.793534524855943,0.0270116184520875
0.7940228537943158,0.0231624573112527
0.7945111827326887,0.02782550799614
0.7949995116710616,0.0279627798471332
0.7954878406094344,0.0133949714011995
0.7959761695478074,0.0137277196712994
0.7964644984861803,0.0429793778722052
0.7969528274245532,0.0718711731273525
0.797441156362926,0.1029952681938646
0.7979294853012989,0.1272233641093834
0.7984178142396718,0.1357106519828947
0.7989061431780448,0.1353259415569358
0.7993944721164176,0.1349887236008059
0.7998828010547905,0.1278926850235274
0.8003711299931634,0.1061191738944353
0.8008594589315363,0.0835689948001149
0.8013477878699091,0.076969457256601
0.801836116808282,0.0827729903056348
0.802324445746655,0.0844089436524512
0.8028127746850279,0.0688623802657266
0.8033011036234007,0.0380428214735822
0.8037894325617736,0.0058135360932208
0.8042777615001465,0.0088285016521354
0.8047660904385193,0.0005800460718845
0.8052544193768922,0.0032202870043021
0.8057427483152652,0.0233771341755397
0.8062310772536381,0.0623643773023481
0.8067194061920109,0.0835203673490865
0.8072077351303838,0.0920136812127879
0.8076960640687567,0.1039930595930779
0.8081843930071296,0.1115700740757463
0.8086727219455024,0.108085340664914
0.8091610508838754,0.1072291475903255
0.8096493798222483,0.1129239918639196
0.8101377087606212,0.1077841794964994
0.810626037698994,0.07981942335297
0.8111143666373669,0.0413396875848031
0.8116026955757398,0.0134175875473608
0.8120910245141127,0.0025344584095611
0.8125793534524856,0.0165112446910514
0.8130676823908585,0.0287472098830015
0.8135560113292314,0.0348989459516871
0.8140443402676042,0.0348549648972827
0.8145326692059771,0.0365305867419442
0.81502099814435,0.0490823849407965
0.815509327082723,0.0696682923344597
0.8159976560210958,0.0835667235347102
0.8164859849594687,0.07833167395687
0.8169743138978416,0.0628012295567009
0.8174626428362145,0.0542456935026559
0.8179509717745873,0.0501195147744507
0.8184393007129602,0.0399102657090981
0.8189276296513331,0.0274115081678328
0.8194159585897061,0.0226478487468158
0.8199042875280789,0.0242217923604892
0.8203926164664518,0.0227746907846045
0.8208809454048247,0.0102425950518892
0.8213692743431976,0.0179183608669955
0.8218576032815704,0.0505787946806658
0.8223459322199433,0.0661338976745387
0.8228342611583163,0.0620657892954695
0.8233225900966891,0.0578392982561071
0.823810919035062,0.0701962060730154
0.8242992479734349,0.0936289528518121
0.8247875769118078,0.1084092611151581
0.8252759058501806,0.1060020884173106
0.8257642347885535,0.0917228121683194
0.8262525637269265,0.0730692242340075
0.8267408926652994,0.0583039548847318
0.8272292216036722,0.0497735710965891
0.8277175505420451,0.0371726816238131
0.828205879480418,0.0158171993566975
0.8286942084187909,0.0014403510116163
0.8291825373571637,0.0089825339327056
0.8296708662955367,0.0246656408695075
0.8301591952339096,0.0166551862448158
0.8306475241722824,0.0280583582865054
0.8311358531106553,0.0877355355497347
0.8316241820490282,0.1196567760957202
0.8321125109874011,0.1053634837429936
0.8326008399257739,0.0763245845759159
0.8330891688641469,0.0652018233093248
0.8335774978025198,0.0659165586379412
0.8340658267408927,0.0564728097032834
0.8345541556792655,0.0281771037574713
0.8350424846176384,0.0027329733417445
0.8355308135560113,0.0194388094332128
0.8360191424943842,0.0755421304374047
0.836507471432757,0.1168295081068073
0.83699580037113,0.1090131795177719
0.8374841293095029,0.06737312600763
0.8379724582478758,0.0233923890280757
0.8384607871862486,0.0028695186421994
0.8389491161246215,0.0167632087420232
0.8394374450629944,0.0392628576335951
0.8399257740013673,0.0739414831904759
0.8404141029397402,0.0966876341359749
0.8409024318781131,0.0831100134080505
0.841390760816486,0.0440246070188823
0.8418790897548588,0.0177939714993502
0.8423674186932317,0.0203007921586039
0.8428557476316046,0.0360159005150311
0.8433440765699776,0.0516938235717785
0.8438324055083504,0.0608489210072746
0.8443207344467233,0.0546207934547585
0.8448090633850962,0.0351392233113022
0.8452973923234691,0.0181509157385448
0.8457857212618419,0.0057510349651659
0.8462740502002148,0.0156805469087563
0.8467623791385878,0.0411131113641356
0.8472507080769607,0.0524726627505178
0.8477390370153335,0.0552713041054349
0.8482273659537064,0.0655014476166198
0.8487156948920793,0.0780217545379116
0.8492040238304521,0.0795453862854515
0.849692352768825,0.0706978081849803
0.850180681707198,0.0612019682536937
0.8506690106455709,0.0535156229267341
0.8511573395839437,0.040945307554044
0.8516456685223166,0.0240485388273649
0.8521339974606895,0.0089467119844644
0.8526223263990624,0.0059829931100558
0.8531106553374352,0.0235832505042997
0.8535989842758082,0.0421081122622192
0.8540873132141811,0.0608768303245966
0.854575642152554,0.0815605271326271
0.8550639710909268,0.1007646214676362
0.8555523000292997,0.1072311124470257
0.8560406289676726,0.0912780138228417
0.8565289579060456,0.0578075634274399
0.8570172868444184,0.0276102971602873
0.8575056157827913,0.0201762357268494
0.8579939447211642,0.0370548101096925
0.858482273659537,0.0654877443296508
0.8589706025979099,0.0930798655452756
0.8594589315362828,0.1081394701968155
0.8599472604746558,0.0969076584158685
0.8604355894130286,0.0544192146796011
0.8609239183514015,0.0033791348980724
0.8614122472897744,0.0429007201251163
0.8619005762281473,0.0500767544445301
0.8623889051665201,0.0500434286020134
0.862877234104893,0.0644644829350239
0.863365563043266,0.0847933930658706
0.8638538919816389,0.0974270394696229
0.8643422209200117,0.1006108512044484
0.8648305498583846,0.0947144298822659
0.8653188787967575,0.0758025207318948
0.8658072077351304,0.047747081090751
0.8662955366735032,0.0279685437618782
0.8667838656118761,0.0250077426833632
0.8672721945502491,0.0282540443103119
0.8677605234886219,0.0352189003950242
0.8682488524269948,0.0550393656377588
0.8687371813653677,0.0767823135274126
0.8692255103037406,0.0790429686454118
0.8697138392421134,0.0662848884602424
0.8702021681804863,0.0552813740657997
0.8706904971188593,0.0470074280503239
0.8711788260572322,0.0348086118261499
0.871667154995605,0.009503374724751
0.8721554839339779,0.0329262750425014
0.8726438128723508,0.0758628949603287
0.8731321418107237,0.1080455789962272
0.8736204707490965,0.1305813186141445
0.8741087996874695,0.1313461556536501
0.8745971286258424,0.1120052654723645
0.8750854575642153,0.0989756236337326
0.8755737865025881,0.1020373832914192
0.876062115440961,0.1116824424212672
0.8765504443793339,0.1145202117838668
0.8770387733177067,0.0929565409338337
0.8775271022560797,0.0493457306554436
0.8780154311944526,0.0113186651512229
0.8785037601328255,0.0131814321828945
0.8789920890711983,0.0422716263821117
0.8794804180095712,0.0744486260262987
0.8799687469479441,0.0870879683521982
0.880457075886317,0.0793009840537
0.8809454048246899,0.0727119686332987
0.8814337337630628,0.0760140951939807
0.8819220627014357,0.0762413137359732
0.8824103916398086,0.0629666152899751
0.8828987205781814,0.0499411148883222
0.8833870495165543,0.0639385499695103
0.8838753784549273,0.1046952842731352
0.8843637073933001,0.1283938280530942
0.884852036331673,0.1036834457720903
0.8853403652700459,0.0622745249067752
0.8858286942084188,0.0460672406754359
0.8863170231467916,0.0442081533833324
0.8868053520851645,0.0260948563717842
0.8872936810235375,0.0078548122969558
0.8877820099619104,0.0374064443571886
0.8882703389002832,0.054356603867411
0.8887586678386561,0.0637620813100608
0.889246996777029,0.0680009643784747
0.8897353257154019,0.0709876785363882
0.8902236546537747,0.0828695117139388
0.8907119835921476,0.0988121092462187
0.8912003125305206,0.1028674050773299
0.8916886414688935,0.0992757102036557
0.8921769704072663,0.1030454364200018
0.8926652993456392,0.1101123246377104
0.8931536282840121,0.1020778075772095
0.8936419572223849,0.0776987464114406
0.8941302861607578,0.0575360894079923
0.8946186150991308,0.0472305544989515
0.8951069440375037,0.0318512981359345
0.8955952729758765,0.0076180733993136
0.8960836019142494,0.0174529450399793
0.8965719308526223,0.0410902403371171
0.8970602597909952,0.0586353696869958
0.897548588729368,0.0614735434436686
0.898036917667741,0.0615350569160229
0.8985252466061139,0.0803520900715656
0.8990135755444868,0.1110967652723573
0.8995019044828596,0.1230688884220315
0.8999902334212325,0.0996449504355216
0.9004785623596054,0.0650573836019123
0.9009668912979784,0.0592267090515909
0.9014552202363512,0.0819145446585359
0.901943549174724,0.0954905974970986
0.902431878113097,0.0782812152253905
0.9029202070514698,0.0424354931316441
0.9034085359898428,0.0061084140618214
0.9038968649282156,0.0242671495225021
0.9043851938665886,0.0439053824210833
0.9048735228049614,0.0438195279732984
0.9053618517433344,0.0266883521618962
0.9058501806817072,0.0208427369970222
0.90633850962008,0.0511746234962417
0.9068268385584528,0.0959691333050128
0.9073151674968258,0.1125473813856675
0.9078034964351988,0.0983501824597978
0.9082918253735716,0.0844771083596609
0.9087801543119444,0.0861144451611952
0.9092684832503174,0.0896055975085317
0.9097568121886904,0.0794924354904858
0.9102451411270632,0.0599046032211149
0.910733470065436,0.0458579081755005
0.911221799003809,0.0448007834979506
0.911710127942182,0.0517404368701566
0.9121984568805548,0.0506777629071911
0.9126867858189276,0.0212752300148874
0.9131751147573004,0.032478291815994
0.9136634436956734,0.0781785160742042
0.9141517726340462,0.1000412722546816
0.9146401015724192,0.111649328902362
0.915128430510792,0.1219513185179839
0.915616759449165,0.124233114725529
0.9161050883875378,0.1136420659184656
0.9165934173259108,0.0939670346660449
0.9170817462642836,0.0725557291254675
0.9175700752026564,0.0569878313273213
0.9180584041410292,0.0465895346519513
0.9185467330794024,0.0318516904188812
0.9190350620177752,0.0106610647039473
0.919523390956148,0.0119614465926029
0.9200117198945208,0.0348769982042602
0.9205000488328938,0.0516551014803502
0.9209883777712669,0.0487776640982014
0.9214767067096395,0.0200981041345239
0.9219650356480124,0.0248417697604151
0.9224533645863854,0.054227615233581
0.9229416935247584,0.040858322789703
0.9234300224631312,0.0037585957191696
0.923918351401504,0.0541577974834869
0.9244066803398768,0.0912809116901215
0.92489500927825,0.0970715061984354
0.9253833382166228,0.0747978145928738
0.9258716671549956,0.0547878300988584
0.9263599960933684,0.0515772968558096
0.9268483250317414,0.0470425126026933
0.9273366539701142,0.0374865252798191
0.9278249829084873,0.0460565395043982
0.92831331184686,0.067769215264594
0.9288016407852328,0.0633701273897453
0.9292899697236058,0.0252751209653924
0.9297782986619788,0.0106331680102568
0.9302666276003516,0.0212552495158322
0.9307549565387244,0.0196906779854109
0.9312432854770972,0.0299851755544209
0.9317316144154704,0.0505048940519501
0.9322199433538432,0.0596139643096419
0.932708272292216,0.0584678438866566
0.9331966012305888,0.0645008370898095
0.9336849301689618,0.0750799952003613
0.9341732591073348,0.0777923706679433
0.9346615880457076,0.0688668406670549
0.9351499169840805,0.046765382398608
0.9356382459224534,0.0195843788539435
0.9361265748608264,0.0064366902613731
0.9366149037991992,0.0100242809318569
0.937103232737572,0.0108653851715292
0.9375915616759448,0.0023856633464696
0.9380798906143176,0.0163747725391378
0.9385682195526908,0.0176453881429313
0.9390565484910636,0.0199919874139497
0.9395448774294364,0.0415488427810205
0.9400332063678092,0.071114991652526
0.9405215353061822,0.0854924007563448
0.9410098642445552,0.0766921539265334
0.941498193182928,0.0559434079383437
0.9419865221213009,0.0447844552903124
0.9424748510596738,0.0509151761157235
0.9429631799980468,0.0657502233662999
0.9434515089364196,0.0799401567544437
0.9439398378747924,0.0782044298374718
0.9444281668131652,0.0532246577959194
0.9449164957515382,0.0257095625087155
0.9454048246899112,0.0181996051335849
0.945893153628284,0.0307128210693725
0.9463814825666568,0.0553397951038744
0.9468698115050298,0.0778966997336898
0.9473581404434026,0.0531915415001428
0.9478464693817756,0.0546030015216763
0.9483347983201484,0.1849340853592615
0.9488231272585214,0.2347947670254992
0.9493114561968942,0.1972632748743519
0.9497997851352672,0.1385112023187619
0.95028811407364,0.095023797224133
0.9507764430120128,0.0666887191650647
0.9512647719503856,0.0461229567289254
0.9517531008887586,0.0292330030244898
0.9522414298271316,0.0154137376491406
0.9527297587655044,0.000193509167302
0.9532180877038772,0.0216246765064701
0.9537064166422502,0.0364188825495548
0.9541947455806232,0.0281702927488265
0.954683074518996,0.0097873631900751
0.9551714034573688,0.005963582623669
0.9556597323957418,0.0104269624978533
0.9561480613341148,0.0087202923754854
0.9566363902724876,0.011023718611013
0.9571247192108604,0.0243218096994095
0.9576130481492332,0.036370763794614
0.9581013770876062,0.0415009801419641
0.958589706025979,0.0451594465733697
0.959078034964352,0.0498010110644592
0.9595663639027248,0.0557393186383972
0.9600546928410978,0.0623254764808657
0.9605430217794706,0.0652964854266839
0.9610313507178436,0.0615025061149469
0.9615196796562164,0.0509803697858523
0.9620080085945892,0.037103453873056
0.9624963375329622,0.0274543861401391
0.9629846664713352,0.0225426642650969
0.963472995409708,0.0095249224078885
0.9639613243480808,0.0128475444071755
0.9644496532864536,0.0249312465948921
0.9649379822248266,0.0236175338351396
0.9654263111631995,0.0258322372226102
0.9659146401015724,0.0424807644569566
0.9664029690399452,0.0793604239106243
0.9668912979783182,0.1222044089456808
0.9673796269166912,0.1311047667589672
0.967867955855064,0.0872544815387549
0.9683562847934368,0.0134152177368085
0.9688446137318096,0.0575515040386132
0.9693329426701828,0.0876483476756586
0.9698212716085556,0.0384882110084482
0.9703096005469284,0.0661438832394966
0.9707979294853012,0.1338608253300191
0.9712862584236742,0.1094937810164361
0.971774587362047,0.0386015791547361
0.97226291630042,0.001122136030339
0.9727512452387927,0.0044420570502306
0.9732395741771658,0.010501927061805
0.9737279031155386,0.0107548150609485
0.9742162320539116,0.0439221089698661
0.9747045609922844,0.0647520553356392
0.9751928899306572,0.0659659543919138
0.97568121886903,0.0563396735267868
0.9761695478074032,0.0478368796075461
0.976657876745776,0.0434794977031914
0.9771462056841488,0.0431231626120156
0.9776345346225216,0.0507051326346773
0.9781228635608946,0.0614396691513452
0.9786111924992676,0.0597160883871074
0.9790995214376405,0.040153049729986
0.9795878503760131,0.0134421049966516
0.9800761793143862,0.0144431048546023
0.9805645082527592,0.0436546644095284
0.981052837191132,0.066075196210799
0.9815411661295048,0.0810519178491467
0.9820294950678776,0.0988599267178763
0.9825178240062504,0.1144902867905196
0.9830061529446236,0.1126107277200764
0.9834944818829964,0.0942590124906265
0.9839828108213692,0.073865371355781
0.984471139759742,0.0537806866059006
0.984959468698115,0.0274932324935707
0.985447797636488,0.0045776901509291
0.9859361265748608,0.0010461001251384
0.9864244555132335,0.0010200907715925
0.9869127844516066,0.0132662016809986
0.9874011133899796,0.0485917650731406
0.9878894423283524,0.0825330144785128
0.9883777712667252,0.0916387966485037
0.988866100205098,0.0682786396474642
0.989354429143471,0.0245598482328065
0.989842758081844,0.0143455749917156
0.9903310870202168,0.0297747306983094
0.9908194159585896,0.0140922426045531
0.9913077448969626,0.0226943355172787
0.9917960738353354,0.0505008579607638
0.9922844027737084,0.0623584036870323
0.9927727317120812,0.0874352650033875
0.9932610606504542,0.1296992749013485
0.993749389588827,0.1391695259536374
0.9942377185272,0.0756555787355706
0.9947260474655728,0.0204866127031921
0.9952143764039456,0.0660725973244493
0.9957027053423184,0.0448400638030599
0.9961910342806914,0.0211457679484266
0.9966793632190644,0.0328331954521177
0.9971676921574372,0.0462823271292404
0.99765602109581,0.0396709803038688
0.998144350034183,0.0452219287709207
0.998632678972556,0.0814442119274186
0.9991210079109288,0.1179860843946734
0.9996093368493016,0.1223185133614027
1.0000976657876746,0.0980108072424214
1.0005859947260474,0.0661190369149141
1.0010743236644204,0.0292830442378158
1.0015626526027932,0.0155115068131964
1.002050981541166,0.0476416373026102
1.002539310479539,0.0410137448325201
1.0030276394179118,0.0044686498729681
1.0035159683562849,0.0590658994889478
1.0040042972946577,0.0836795739673592
1.0044926262330305,0.0603139410999706
1.0049809551714035,0.0031269950407655
1.0054692841097763,0.0556404936295157
1.0059576130481491,0.090246428252306
1.0064459419865222,0.1033716300004132
1.006934270924895,0.1140854770739967
1.007422599863268,0.1288311513548161
1.0079109288016408,0.1427436196811065
1.0083992577400136,0.1519115107412278
1.0088875866783866,0.1554301112027591
1.0093759156167594,0.156495906386917
1.0098642445551322,0.1547357383358718
1.0103525734935053,0.1384699507805748
1.010840902431878,0.1048819692800775
1.0113292313702509,0.0764944087250896
1.011817560308624,0.0695469892436189
1.0123058892469967,0.0700113036003871
1.0127942181853695,0.056565852249368
1.0132825471237423,0.0236225457569139
1.0137708760621154,0.0168785384144203
1.0142592050004884,0.0489257692453328
1.0147475339388612,0.0671309772746839
1.015235862877234,0.0809704511222382
1.015724191815607,0.1074584084205147
1.0162125207539798,0.1461519303388071
1.0167008496923529,0.1710901492578403
1.0171891786307257,0.1622006688641875
1.0176775075690985,0.1244336608941602
1.0181658365074715,0.0761800742621193
1.0186541654458443,0.0414616188797114
1.0191424943842171,0.0378075353197547
1.01963082332259,0.0487984747259722
1.020119152260963,0.0355056747355621
1.0206074811993358,0.0033093254871635
1.0210958101377088,0.0252822026572484
1.0215841390760816,0.0159466236937063
1.0220724680144546,0.0073517033405945
1.0225607969528274,0.0201650620455409
1.0230491258912002,0.0450930474726885
1.0235374548295733,0.0708626694991909
1.024025783767946,0.0911282009571237
1.0245141127063189,0.0974893330493989
1.025002441644692,0.0865088370257901
1.0254907705830647,0.0655462561348945
1.0259790995214375,0.0445972708047288
1.0264674284598103,0.0278097904909734
1.0269557573981831,0.0186524306954184
1.0274440863365564,0.0217567698875281
1.0279324152749292,0.0224073553806
1.028420744213302,0.008177187775055
1.028909073151675,0.0591648099224986
1.0293974020900478,0.0771321838881057
1.0298857310284206,0.0510895430510189
1.0303740599667937,0.0367314217847859
1.0308623889051665,0.0663778632772876
1.0313507178435397,0.111347508143944
1.0318390467819123,0.1376600078860904
1.032327375720285,0.1356283487552732
1.032815704658658,0.1117169959431549
1.033304033597031,0.0825606929393273
1.0337923625354035,0.0638145230029324
1.0342806914737768,0.0573000570871359
1.0347690204121496,0.0541034273324842
1.0352573493505226,0.0469157288228709
1.0357456782888954,0.0370469113639845
1.0362340072272682,0.0312045361382168
1.0367223361656412,0.0272029130918081
1.037210665104014,0.0176148209282198
1.0376989940423869,0.0079537003307475
1.03818732298076,0.0015744939213451
1.0386756519191327,0.006154585981709
1.0391639808575055,0.0063643471683956
1.0396523097958783,0.0008142700069283
1.040140638734251,0.0147755595517524
1.0406289676726244,0.0522932906145432
1.0411172966109972,0.0947963783289083
1.04160562554937,0.1282760552407972
1.042093954487743,0.135795542167213
1.0425822834261158,0.1086188147560248
1.0430706123644886,0.0693012565337212
1.0435589413028616,0.048938986359473
1.0440472702412344,0.0480612807317156
1.0445355991796077,0.0431852450593008
1.0450239281179805,0.0250993350597829
1.045512257056353,0.0040483134214139
1.046000585994726,0.0038945160249892
1.046488914933099,0.0147149689422087
1.0469772438714715,0.0406082379390342
1.0474655728098448,0.0246803332090163
1.0479539017482176,0.0478653181776083
1.0484422306865904,0.1255698143548514
1.0489305596249634,0.1463938014850281
1.0494188885633362,0.1138816007537768
1.0499072175017092,0.0807539521133858
1.050395546440082,0.071350670124614
1.0508838753784548,0.0712449892033189
1.051372204316828,0.0657487406382678
1.051860533255201,0.0537969523467762
1.0523488621935737,0.0462315387838503
1.0528371911319463,0.052033283845672
1.053325520070319,0.0566131708461009
1.053813849008692,0.0366366761976729
1.0543021779470652,0.005854510592131
1.054790506885438,0.0457365217237804
1.055278835823811,0.0623194473581384
1.0557671647621838,0.0617081664574639
1.0562554937005566,0.06711649791585
1.0567438226389296,0.0805046650747207
1.0572321515773024,0.0840738645603352
1.0577204805156752,0.0778269223974794
1.0582088094540485,0.0742809452083066
1.058697138392421,0.0729698988497977
1.059185467330794,0.0704295239390612
1.059673796269167,0.0751563251810015
1.0601621252075395,0.091556657087958
1.0606504541459127,0.1019135483240345
1.0611387830842856,0.0893484220299112
1.0616271120226584,0.0684348138132383
1.0621154409610314,0.0655982367104478
1.0626037698994042,0.0788867008709436
1.063092098837777,0.0806801091849262
1.06358042777615,0.0583252368046371
1.0640687567145228,0.0272128176206563
1.064557085652896,0.0071809826215996
1.065045414591269,0.0675540726034232
1.0655337435296417,0.1598468852644965
1.0660220724680145,0.2328818428783738
1.0665104014063873,0.2262279068066779
1.06699873034476,0.1544140054191087
1.0674870592831331,0.0895194529273107
1.067975388221506,0.0657927244863284
1.068463717159879,0.0598365863392387
1.0689520460982518,0.0498141599250954
1.0694403750366246,0.0375919383589079
1.0699287039749976,0.0260656488113679
1.0704170329133704,0.0123022499599372
1.0709053618517432,0.0052078049446151
1.0713936907901165,0.025363563006614
1.071882019728489,0.0448320086030879
1.072370348666862,0.059329890543641
1.072858677605235,0.0648843718572167
1.0733470065436077,0.0600589630965478
1.0738353354819807,0.0514069895698102
1.0743236644203535,0.0467484264807986
1.0748119933587263,0.0463707955016513
1.0753003222970994,0.0468329430874835
1.0757886512354722,0.0463305517846981
1.076276980173845,0.0460318937503584
1.076765309112218,0.0446274686743453
1.0772536380505908,0.0354439132665884
1.077741966988964,0.0142336559805816
1.0782302959273369,0.016046369873544
1.0787186248657097,0.0443381508827987
1.0792069538040825,0.0511339740255397
1.0796952827424553,0.0288460427510362
1.080183611680828,0.0014735673228353
1.0806719406192011,0.0075478155163786
1.081160269557574,0.0061527222088609
1.0816485984959467,0.0056789257698834
1.0821369274343198,0.0030918271311434
1.0826252563726926,0.0005114578035743
1.0831135853110656,0.0012306248329035
1.0836019142494384,0.0069026319281475
1.0840902431878112,0.022785048482434
1.0845785721261842,0.0364804495327427
1.085066901064557,0.0366209259874802
1.08555523000293,0.0329460941562441
1.0860435589413029,0.0434393160601525
1.0865318878796757,0.0658160490529049
1.0870202168180487,0.0767038910821361
1.0875085457564215,0.0630140094185473
1.0879968746947943,0.0411203806716165
1.0884852036331674,0.0318482180699132
1.0889735325715402,0.0317081021836429
1.089461861509913,0.025033397995875
1.089950190448286,0.0074531631108358
1.0904385193866588,0.0131145686633067
1.0909268483250316,0.0293595318138532
1.0914151772634046,0.0437043530389101
1.0919035062017777,0.0624225515648021
1.0923918351401505,0.0834589805652463
1.0928801640785233,0.0946477105835224
1.093368493016896,0.0823745078288814
1.0938568219552691,0.0527786861998944
1.094345150893642,0.0333325591121642
1.0948334798320147,0.0325489323508427
1.0953218087703878,0.0308505453829145
1.0958101377087606,0.0188822798585713
1.0962984666471336,0.0044211496265461
1.0967867955855064,0.0100206540797367
1.0972751245238792,0.0277162721274634
1.0977634534622522,0.03984322786436
1.098251782400625,0.0291849353706751
1.0987401113389978,0.005410246884167
1.0992284402773709,0.0082525372966074
1.0997167692157437,0.0492295320520792
1.1002050981541165,0.08441484188722
1.1006934270924895,0.0760063384017888
1.1011817560308623,0.0460322725138891
1.1016700849692354,0.0353800020470676
1.1021584139076082,0.0436117122588815
1.102646742845981,0.0440053390055976
1.103135071784354,0.0288593571266522
1.1036234007227268,0.0105318397292055
1.1041117296610996,0.0081881828889971
1.1046000585994726,0.0323786442937784
1.1050883875378454,0.044570929984799
1.1055767164762185,0.0215770464425762
1.1060650454145913,0.0184480333421504
1.106553374352964,0.0336987754104708
1.107041703291337,0.012837446709024
1.10753003222971,0.0276654118764517
1.1080183611680827,0.0736148510225275
1.1085066901064555,0.1094991086174852
1.1089950190448286,0.1155980341660712
1.1094833479832014,0.0939692074355506
1.1099716769215744,0.0718347737911336
1.1104600058599472,0.0692858233745767
1.1109483347983202,0.0830857591294683
1.111436663736693,0.0918018982887102
1.1119249926750658,0.0775772779300606
1.1124133216134389,0.0511553663009569
1.1129016505518117,0.0296682652805841
1.1133899794901845,0.0100346485054276
1.1138783084285575,0.0115894398489522
1.1143666373669303,0.0372861167674952
1.1148549663053031,0.0788526812248087
1.115343295243676,0.1332727412364615
1.115831624182049,0.1724292804340775
1.116319953120422,0.1781920714863126
1.1168082820587948,0.1598047966247478
1.1172966109971676,0.1286337642513041
1.1177849399355406,0.0924702284036506
1.1182732688739134,0.064472122335273
1.1187615978122862,0.0474169623193765
1.1192499267506593,0.0318171994139737
1.119738255689032,0.0100874673397957
1.120226584627405,0.0135957476737614
1.120714913565778,0.015625888889239
1.1212032425041507,0.0142431596643991
1.1216915714425235,0.0395015364426279
1.1221799003808963,0.0258710958768256
1.1226682293192694,0.0103633473935693
1.1231565582576424,0.0339966026520627
1.1236448871960152,0.0306403719118873
1.1241332161343882,0.013840458267197
1.124621545072761,0.0128036034594651
1.1251098740111338,0.037116259026296
1.1255982029495069,0.0619359786114483
1.1260865318878797,0.0683003528031159
1.1265748608262525,0.0663072419705272
1.1270631897646255,0.0694926424450392
1.1275515187029983,0.0740251306197578
1.128039847641371,0.0636595439188504
1.128528176579744,0.036449607832693
1.129016505518117,0.0139283876691103
1.12950483445649,0.0102184660578894
1.1299931633948628,0.0153002141497736
1.1304814923332356,0.0131816736256256
1.1309698212716086,0.0017168344610593
1.1314581502099814,0.0238964808597851
1.1319464791483542,0.0400293925860297
1.1324348080867273,0.0396145831710409
1.1329231370251,0.0211012351396438
1.133411465963473,0.0127528994606245
1.133899794901846,0.0370606729696483
1.1343881238402187,0.0078828001072444
1.1348764527785915,0.0730351663943971
1.1353647817169643,0.1433616570905478
1.1358531106553371,0.1573295029558404
1.1363414395937104,0.1260385775735643
1.1368297685320832,0.0805694346541113
1.137318097470456,0.0387802294535623
1.137806426408829,0.0044211719087063
1.1382947553472018,0.0256988030368099
1.1387830842855748,0.0527244531832508
1.1392714132239476,0.0652339410901656
1.1397597421623205,0.0523645798977629
1.1402480711006937,0.0295326829832891
1.1407364000390663,0.0252963872322524
1.141224728977439,0.0460666686806061
1.141713057915812,0.076322313149252
1.142201386854185,0.1024948585189303
1.142689715792558,0.1169582366673448
1.1431780447309308,0.1113735613222991
1.1436663736693036,0.086274566442661
1.1441547026076766,0.0555994831777673
1.1446430315460494,0.0288337911346961
1.1451313604844222,0.002295952854741
1.1456196894227952,0.0239378488535381
1.146108018361168,0.0321454070441422
1.1465963472995409,0.0079267798541781
1.147084676237914,0.0266148587302552
1.147573005176287,0.0309326007692331
1.1480613341146595,0.0003617088117874
1.1485496630530323,0.0364053687019421
1.149037991991405,0.0607780658181561
1.1495263209297784,0.0825029038994748
1.1500146498681512,0.0967969160460988
1.150502978806524,0.0852732679384572
1.150991307744897,0.0524920976872213
1.1514796366832698,0.0193266298045878
1.1519679656216426,0.0020909680943894
1.1524562945600156,0.0103737177936637
1.1529446234983884,0.0133693031008643
1.1534329524367617,0.0190658579243604
1.1539212813751345,0.0248305737363073
1.154409610313507,0.0281860058016687
1.15489793925188,0.0360338455773338
1.155386268190253,0.0499918856796042
1.1558745971286255,0.0620635387273618
1.1563629260669988,0.0708349731943596
1.1568512550053716,0.0784510939542726
1.1573395839437446,0.082545004645134
1.1578279128821174,0.0816374308763307
1.1583162418204902,0.0728164216169367
1.1588045707588632,0.0559561362686537
1.159292899697236,0.042012161291427
1.1597812286356088,0.0365335816972432
1.160269557573982,0.0310313581021234
1.160757886512355,0.0236757803277505
1.1612462154507277,0.0220725587274861
1.1617345443891005,0.0214554411661655
1.162222873327473,0.0067379844418797
1.1627112022658463,0.0238904103697962
1.1631995312042192,0.0560342432384038
1.163687860142592,0.0770474383193086
1.164176189080965,0.0855000079679632
1.1646645180193378,0.084311708354174
1.1651528469577106,0.0778068713370206
1.1656411758960836,0.0734931384524002
1.1661295048344564,0.0770397161162683
1.1666178337728297,0.0872692930904439
1.1671061627112025,0.0957518051884587
1.167594491649575,0.0923700268332031
1.168082820587948,0.069853212482961
1.168571149526321,0.0313264902254927
1.1690594784646935,0.0028500373758178
1.1695478074030667,0.0104859186978969
1.1700361363414395,0.0356059556459624
1.1705244652798124,0.0309666486658889
1.1710127942181854,0.013667850984466
1.1715011231565582,0.0592502373392399
1.1719894520949312,0.0735209400373667
1.172477781033304,0.0621417701274653
1.1729661099716768,0.0449139115483867
1.17345443891005,0.0364841539396251
1.1739427678484229,0.0463860052568107
1.1744310967867957,0.0647727871173489
1.1749194257251685,0.0608013350328978
1.1754077546635413,0.0251295476228423
1.1758960836019143,0.008909283690288
1.1763844125402871,0.0033505164301922
1.17687274147866,0.0401491993521846
1.177361070417033,0.0830652995559637
1.1778493993554058,0.0935749811142811
1.1783377282937786,0.0764949772022401
1.1788260572321516,0.0568273342683775
1.1793143861705244,0.042465613471828
1.1798027151088972,0.0191663343513917
1.1802910440472705,0.0200455676923097
1.180779372985643,0.0591325535126721
1.181267701924016,0.0749057188971283
1.181756030862389,0.0679322076104916
1.1822443598007617,0.06310147316377
1.1827326887391347,0.0699640178803994
1.1832210176775075,0.0726259804915488
1.1837093466158803,0.0635108558437344
1.1841976755542534,0.0549790122461372
1.1846860044926262,0.0582784175390314
1.1851743334309992,0.0724884606526546
1.185662662369372,0.0862656365651724
1.1861509913077448,0.0878866284006831
1.1866393202461178,0.0803024340431155
1.1871276491844909,0.0698189458973008
1.1876159781228637,0.0524863808974119
1.1881043070612365,0.0221067772233899
1.1885926359996093,0.0215444539960232
1.189080964937982,0.0627913731125837
1.1895692938763551,0.081114966717507
1.190057622814728,0.0767790794905393
1.190545951753101,0.0661625009448403
1.1910342806914738,0.0639171498623907
1.1915226096298466,0.0726738920733476
1.1920109385682196,0.0818548667676444
1.1924992675065924,0.0814563263595522
1.1929875964449652,0.0754663342098533
1.1934759253833382,0.0768569794745659
1.193964254321711,0.0903041556450908
1.194452583260084,0.1001439357206332
1.1949409121984569,0.084182713391093
1.1954292411368297,0.0486625745465074
1.1959175700752027,0.0215022612734348
1.1964058990135755,0.0084814608153946
1.1968942279519483,0.0015300781352546
1.1973825568903214,0.0105959079672739
1.1978708858286942,0.0270334037344009
1.198359214767067,0.0569931178580277
1.19884754370544,0.0782394930331968
1.1993358726438128,0.0767418712905189
1.1998242015821858,0.0673926551171477
1.2003125305205586,0.0556967102453465
1.2008008594589314,0.0339720413442928
1.2012891883973045,0.0070266966525163
1.2017775173356773,0.0108011725639868
1.20226584627405,0.0125294609090111
1.2027541752124231,0.0020703285678488
1.203242504150796,0.0194332193877578
1.203730833089169,0.0580175921068881
1.2042191620275418,0.1019483192866194
1.2047074909659146,0.1122714047996878
1.2051958199042876,0.0630289614575386
1.2056841488426604,0.0178381769219176
1.2061724777810332,0.0718750825629546
1.2066608067194062,0.0761485360142291
1.207149135657779,0.0597108674393535
1.2076374645961518,0.0506460846536639
1.2081257935345249,0.0463299104671292
1.2086141224728977,0.0414959793810306
1.2091024514112707,0.0427857696780678
1.2095907803496435,0.047957518959805
1.2100791092880163,0.0415930867319866
1.2105674382263891,0.0245124196327327
1.2110557671647622,0.0191869928298624
1.211544096103135,0.027080848847856
1.212032425041508,0.0216632233660755
1.2125207539798808,0.0050094429372597
1.2130090829182538,0.030589487394694
1.2134974118566266,0.0391409379241566
1.2139857407949994,0.0460883741759407
1.2144740697333725,0.0740359970914098
1.2149623986717453,0.1145320123805185
1.215450727610118,0.1399440359574353
1.215939056548491,0.1431479861210744
1.216427385486864,0.1404857236060061
1.2169157144252367,0.1412198119501264
1.2174040433636095,0.1388102108466294
1.2178923723019826,0.1307694783421673
1.2183807012403556,0.1186120006991923
1.2188690301787284,0.0981453126535666
1.2193573591171012,0.0718244267721726
1.2198456880554742,0.0511964395972212
1.220334016993847,0.0365100032346055
1.2208223459322198,0.014193722189277
1.2213106748705929,0.023858571921294
1.2217990038089657,0.0672095291386243
1.2222873327473387,0.0923913528050711
1.2227756616857115,0.0925222522584225
1.2232639906240843,0.0923222610655319
1.2237523195624571,0.1136149571577882
1.22424064850083,0.1432481722508905
1.224728977439203,0.1514870254902133
1.225217306377576,0.1344185461179342
1.2257056353159488,0.1189943115847766
1.2261939642543216,0.1246260158481329
1.2266822931926946,0.1391632316211038
1.2271706221310674,0.1375038812334157
1.2276589510694405,0.1163298867047289
1.2281472800078133,0.0888869717816957
1.228635608946186,0.0569713002032244
1.229123937884559,0.01741719724671
1.229612266822932,0.0219669424175572
1.2301005957613047,0.0430491543471777
1.2305889246996775,0.037020077093921
1.2310772536380503,0.0237717759816135
1.2315655825764236,0.0217368278525112
1.2320539115147964,0.0200367257918143
1.2325422404531692,0.0197828636531787
1.2330305693915422,0.0518397682921453
1.233518898329915,0.1213793133207164
1.2340072272682878,0.1862795710154636
1.2344955562066608,0.1996346369217038
1.2349838851450337,0.1574643025037094
1.2354722140834065,0.1055594525650457
1.2359605430217795,0.0796539056713296
1.2364488719601523,0.0703526515793377
1.236937200898525,0.0624245433255882
1.237425529836898,0.0533496329834956
1.237913858775271,0.039797158759622
1.238402187713644,0.0175736787406298
1.2388905166520168,0.0112529644734607
1.2393788455903896,0.036154698784739
1.2398671745287626,0.0494263404192272
1.2403555034671354,0.0572843085666553
1.2408438324055084,0.0706411663166381
1.2413321613438812,0.0900089156025334
1.241820490282254,0.1068223728117345
1.242308819220627,0.1161789505589311
1.242797148159,0.1209603270489063
1.2432854770973727,0.1253197900668455
1.2437738060357455,0.1246437496109774
1.2442621349741183,0.1074383639509423
1.2447504639124911,0.0746539584209273
1.2452387928508644,0.0434980601814418
1.2457271217892372,0.0251637272413126
1.2462154507276102,0.0149355096472648
1.246703779665983,0.0100089254800856
1.2471921086043558,0.0167352537683441
1.2476804375427288,0.0331380169880949
1.2481687664811016,0.0361808084221656
1.2486570954194744,0.0048819778413013
1.2491454243578477,0.0845821753362244
1.2496337532962205,0.1433588026043212
1.250122082234593,0.1387652507279284
1.250610411172966,0.1018268504907228
1.251098740111339,0.0784980967804052
1.251587069049712,0.0715684429964277
1.2520753979880848,0.064544777687906
1.2525637269264576,0.0537262141114894
1.2530520558648306,0.0426540056715327
1.2535403848032034,0.0289671442791841
1.2540287137415762,0.0136207895768775
1.2545170426799492,0.006060093391353
1.255005371618322,0.0045123687663562
1.255493700556695,0.0033988631360782
1.255982029495068,0.0190086528637106
1.256470358433441,0.0342126956131125
1.2569586873718137,0.0461152698135142
1.2574470163101863,0.0581361885433001
1.257935345248559,0.0687102744838524
1.2584236741869324,0.0717869446922189
1.2589120031253052,0.067523004981613
1.259400332063678,0.0644151323724428
1.259888661002051,0.0716170718842433
1.2603769899404238,0.079346662268025
1.2608653188787968,0.071546203393391
1.2613536478171696,0.0606951396038361
1.2618419767555424,0.0627955338492384
1.2623303056939157,0.0632199663830772
1.2628186346322885,0.045363825763007
1.263306963570661,0.0203722023602625
1.263795292509034,0.0053992589296047
1.264283621447407,0.0067956322923993
1.26477195038578,0.0317940298282513
1.2652602793241527,0.0599918748312737
1.2657486082625256,0.0749530316886151
1.2662369372008986,0.0849442032013618
1.2667252661392714,0.0978249401959251
1.2672135950776442,0.0985865567092927
1.2677019240160172,0.0807487463733938
1.26819025295439,0.0621133608214426
1.2686785818927628,0.0513273331028727
1.269166910831136,0.0370230742635093
1.269655239769509,0.0176228898748308
1.2701435687078817,0.0042865521979407
1.2706318976462545,0.0009449214534289
1.2711202265846273,0.0022483385252513
1.2716085555230003,0.0046095793662475
1.2720968844613731,0.0211369635009247
1.272585213399746,0.0515472124780649
1.273073542338119,0.0711149190460533
1.2735618712764918,0.0675441562951694
1.2740502002148648,0.0534683289480501
1.2745385291532376,0.0450278923888811
1.2750268580916104,0.0493502332322977
1.2755151870299837,0.0586370379388656
1.2760035159683565,0.0580829171009217
1.276491844906729,0.0510690978254018
1.276980173845102,0.0561035155659642
1.277468502783475,0.0665349198811826
1.2779568317218477,0.0570263086135788
1.2784451606602207,0.0310127953156073
1.2789334895985935,0.0137453008711421
1.2794218185369666,0.0098521453518929
1.2799101474753394,0.0003189072005202
1.2803984764137122,0.0262864244425977
1.2808868053520852,0.0544000760156965
1.281375134290458,0.0706792668622525
1.2818634632288308,0.0759915604842619
1.282351792167204,0.0784974175016337
1.2828401211055769,0.082376458159002
1.2833284500439497,0.086264439666984
1.2838167789823225,0.0875312489546282
1.2843051079206953,0.0840152356212455
1.2847934368590683,0.0757441772387044
1.2852817657974411,0.0683437558621425
1.285770094735814,0.0669456236911065
1.286258423674187,0.0729485163625335
1.2867467526125598,0.0860633557037012
1.2872350815509326,0.0926163754526505
1.2877234104893056,0.0768820485445363
1.2882117394276784,0.0496186663548142
1.2887000683660514,0.0302970498962817
1.2891883973044242,0.0119192584285306
1.289676726242797,0.0248491156312997
1.29016505518117,0.0680619901921154
1.290653384119543,0.0820263285039253
1.2911417130579157,0.0610610876994661
1.2916300419962887,0.0380670282412422
1.2921183709346615,0.0379528558417814
1.2926066998730346,0.0513292515607736
1.2930950288114074,0.0601914174881706
1.2935833577497802,0.0641236291391367
1.2940716866881532,0.0737771017197329
1.294560015626526,0.0900331899892597
1.2950483445648988,0.0966406530319424
1.2955366735032718,0.0833636840353548
1.2960250024416446,0.0620873480127428
1.2965133313800177,0.0454882309865478
1.2970016603183905,0.0279612437346369
1.2974899892567633,0.0006447267226804
1.2979783181951363,0.0316489745095412
1.2984666471335091,0.0574482091875508
1.298954976071882,0.0708649745195498
1.299443305010255,0.0750899336122677
1.2999316339486278,0.074802741648183
1.3004199628870006,0.070527916255252
1.3009082918253736,0.0674258066238942
1.3013966207637464,0.0749928772656821
1.3018849497021194,0.0956971219339499
1.3023732786404922,0.1224620322462277
1.302861607578865,0.1368143164574042
1.303349936517238,0.122201432962035
1.3038382654556109,0.0840265784600466
1.3043265943939837,0.039273020507989
1.3048149233323567,0.0009452946451125
1.3053032522707295,0.0328691179089569
1.3057915812091023,0.0592281506968558
1.3062799101474754,0.0816660769199322
1.3067682390858482,0.0919473790135043
1.3072565680242212,0.0900332169336492
1.307744896962594,0.0905323883557371
1.3082332259009668,0.0953978746385275
1.3087215548393398,0.0967985525847583
1.3092098837777126,0.1013613670230806
1.3096982127160854,0.1099689216884501
1.3101865416544585,0.1003418749975246
1.3106748705928313,0.0683297301960327
1.3111631995312043,0.0389530014592673
1.311651528469577,0.0259026379282272
1.31213985740795,0.0234979278797359
1.312628186346323,0.0207973311145169
1.3131165152846958,0.0087825445375079
1.3136048442230686,0.0112461395493335
1.3140931731614416,0.035744878216538
1.3145815020998144,0.0691752616926795
1.3150698310381872,0.1032672854866749
1.3155581599765602,0.1113545503453988
1.316046488914933,0.0872392571074008
1.316534817853306,0.0593066891988294
1.3170231467916789,0.0496011437665599
1.3175114757300517,0.0420869606979463
1.3179998046684247,0.0183228124919476
1.3184881336067975,0.0019268821081182
1.3189764625451703,0.0229177981006922
1.3194647914835431,0.0657931026396737
1.319953120421916,0.0870526377667596
1.3204414493602892,0.0642931238649768
1.320929778298662,0.0138577477138738
1.3214181072370348,0.0273584006897651
1.3219064361754078,0.034872836026422
1.3223947651137806,0.0200418343769579
1.3228830940521534,0.0114813125078658
1.3233714229905265,0.0222809491881632
1.3238597519288993,0.0430847159537678
1.324348080867272,0.0560917249552112
1.324836409805645,0.0589937699509435
1.325324738744018,0.0663407387217576
1.325813067682391,0.0855929977217804
1.3263013966207635,0.1058814144663325
1.3267897255591363,0.109938200783397
1.3272780544975096,0.1001158786808899
1.3277663834358824,0.0972918938214579
1.3282547123742552,0.0993815833655983
1.3287430413126282,0.073847838211615
1.329231370251001,0.0084052982217122
1.329719699189374,0.0594037222456312
1.3302080281277469,0.0842352225583401
1.3306963570661197,0.0652606892780777
1.3311846860044927,0.0360825561609567
1.3316730149428655,0.0223092475097412
1.3321613438812383,0.0282569736472892
1.332649672819611,0.0491551987116405
1.333138001757984,0.0754596374512846
1.333626330696357,0.0898708438359251
1.33411465963473,0.0843688394197267
1.3346029885731028,0.0738639630438956
1.3350913175114758,0.0696188069154441
1.3355796464498486,0.0658395184693315
1.3360679753882214,0.058362942761286
1.3365563043265944,0.0462203778708036
1.3370446332649673,0.0250610017518628
1.33753296220334,0.0066747384602868
1.338021291141713,0.0397567772191925
1.338509620080086,0.0597558575323903
1.338997949018459,0.0601269118880796
1.3394862779568315,0.0479744344536183
1.3399746068952043,0.0381102354377749
1.3404629358335776,0.0404063287015147
1.3409512647719504,0.0546490804488038
1.3414395937103232,0.0735136226781158
1.3419279226486962,0.0851582306284416
1.342416251587069,0.0766930470049549
1.3429045805254418,0.0502304904264445
1.3433929094638148,0.0286636188697094
1.3438812384021877,0.0283450676222847
1.344369567340561,0.0422945680149416
1.3448578962789337,0.0552398921123952
1.3453462252173063,0.057080021854735
1.345834554155679,0.0422441805340715
1.346322883094052,0.0129863085624394
1.346811212032425,0.0141458356988705
1.347299540970798,0.0221552316316069
1.3477878699091708,0.016502390720973
1.3482761988475438,0.0173466142523864
1.3487645277859166,0.0328812943431703
1.3492528567242894,0.0544769464172976
1.3497411856626624,0.0702556752211338
1.3502295146010352,0.077718639189737
1.350717843539408,0.0820699660739371
1.351206172477781,0.0830140933328266
1.351694501416154,0.0763028747684521
1.352182830354527,0.0636377570499973
1.3526711592928995,0.0496065055226103
1.3531594882312723,0.0386379663073103
1.3536478171696456,0.0295915200611732
1.3541361461080184,0.0129900636546327
1.3546244750463912,0.0089428808048292
1.3551128039847642,0.0189377123797307
1.355601132923137,0.0126353845870386
1.3560894618615098,0.0070879942484134
1.3565777907998828,0.0219014274894918
1.3570661197382556,0.0554740184722417
1.3575544486766284,0.0819142278329142
1.3580427776150017,0.0838410080537525
1.3585311065533745,0.0738105856175448
1.3590194354917473,0.070868617802724
1.35950776443012,0.070390107025581
1.359996093368493,0.0515488682535063
1.360484422306866,0.0160323434620815
1.3609727512452388,0.0020117243181162
1.3614610801836116,0.0171994858147389
1.3619494091219846,0.044861245315328
1.3624377380603574,0.0466317766724076
1.3629260669987304,0.0308361339676566
1.3634143959371032,0.0162951309150123
1.363902724875476,0.0018787724551935
1.364391053813849,0.0230550726691833
1.364879382752222,0.0339407710474645
1.365367711690595,0.0460138228920158
1.3658560406289677,0.0836050812745033
1.3663443695673405,0.1282090349842292
1.366832698505713,0.134576737020885
1.3673210274440863,0.1023835785998256
1.3678093563824592,0.0704140118490948
1.3682976853208322,0.0565522590327567
1.368786014259205,0.0538091693460527
1.3692743431975778,0.0554996169693398
1.3697626721359508,0.0554633654733388
1.3702510010743236,0.0508451379797316
1.3707393300126964,0.0474184025418768
1.3712276589510697,0.0449462030353389
1.3717159878894425,0.0345155833396499
1.3722043168278153,0.0146711666737698
1.372692645766188,0.0082074922643399
1.373180974704561,0.0270311326352428
1.373669303642934,0.0384429096895013
1.3741576325813067,0.0476219003233284
1.3746459615196795,0.059729059789178
1.3751342904580526,0.0720075716255988
1.3756226193964254,0.0819566122556353
1.3761109483347982,0.0884831735872753
1.3765992772731712,0.0827294084777928
1.377087606211544,0.0598762185994933
1.377575935149917,0.0372018620827065
1.37806426408829,0.0361641363522288
1.3785525930266629,0.0543313460946514
1.3790409219650357,0.0737671074297298
1.3795292509034085,0.078590004413561
1.3800175798417813,0.0559832083207852
1.3805059087801543,0.0111888964020053
1.3809942377185271,0.0244230045759573
1.3814825666569002,0.0352144571181227
1.381970895595273,0.0449997200203055
1.3824592245336458,0.066040804082557
1.3829475534720188,0.0752736563488885
1.3834358824103916,0.0630463787997348
1.3839242113487644,0.049388824707682
1.3844125402871374,0.0492647617001488
1.3849008692255105,0.0586219443488395
1.385389198163883,0.0689365275884737
1.385877527102256,0.0763258617274278
1.386365856040629,0.0755538489667926
1.386854184979002,0.0614570229195818
1.3873425139173747,0.0438344144579826
1.3878308428557475,0.0329242779677721
1.3883191717941206,0.0176863478299537
1.3888075007324934,0.009002765080859
1.3892958296708662,0.0320641537419518
1.3897841586092392,0.0415703306713624
1.390272487547612,0.0474828307473707
1.390760816485985,0.0554755874373223
1.3912491454243578,0.0609904797144452
1.3917374743627309,0.0672313832059466
1.3922258033011037,0.0790687345868433
1.3927141322394765,0.0963062863053697
1.3932024611778493,0.1192669407574208
1.3936907901162223,0.14203795373626
1.3941791190545951,0.1508633951120437
1.394667447992968,0.13105969091109
1.395155776931341,0.0741540347875876
1.3956441058697138,0.0005631804815643
1.3961324348080868,0.048722545467859
1.3966207637464596,0.0509068026464219
1.3971090926848324,0.0325901211293893
1.3975974216232054,0.0218755836173105
1.3980857505615782,0.0207624829383464
1.398574079499951,0.0251130331800883
1.399062408438324,0.0358927625944616
1.3995507373766969,0.049650915447193
1.40003906631507,0.0657940673736562
1.4005273952534427,0.0877727537155197
1.4010157241918155,0.1066201168586273
1.4015040531301886,0.1084385411303477
1.4019923820685614,0.0966517384327427
1.4024807110069342,0.0840659255665395
1.4029690399453072,0.0712410625645538
1.40345736888368,0.0524272655626656
1.4039456978220528,0.0298513915000292
1.4044340267604258,0.0109438089500858
1.4049223556987986,0.0011636483978864
1.4054106846371717,0.0053929820737119
1.4058990135755445,0.0211056099496769
1.4063873425139173,0.0403439829242948
1.4068756714522903,0.0446033962726412
1.4073640003906631,0.0353754344454759
1.407852329329036,0.0347401344189444
1.408340658267409,0.0506865418484252
1.4088289872057818,0.0646704023151602
1.4093173161441548,0.06393138853291
1.4098056450825276,0.0627719236392018
1.4102939740209004,0.0735952000334421
1.4107823029592734,0.0799876730893905
1.4112706318976462,0.0649189210612469
1.411758960836019,0.0459631702682539
1.412247289774392,0.0428185685240988
1.4127356187127649,0.0399835051536639
1.4132239476511377,0.0222177810099912
1.4137122765895107,0.0004138992384651
1.4142006055278835,0.0218061237724714
1.4146889344662563,0.0460087034526454
1.4151772634046291,0.0715087891539696
1.4156655923430022,0.0923650767975245
1.4161539212813752,0.101734892454678
1.416642250219748,0.0976781579004271
1.4171305791581208,0.08873876429486
1.4176189080964938,0.0833690434118141
1.4181072370348666,0.0797294920479337
1.4185955659732397,0.0752100311261025
1.4190838949116125,0.0710919116770138
1.4195722238499853,0.0666539554200245
1.4200605527883583,0.0602321940495437
1.420548881726731,0.0513845443659999
1.421037210665104,0.0427695508727877
1.421525539603477,0.0343054879382836
1.4220138685418495,0.0174801133347734
1.4225021974802226,0.0120389597578797
1.4229905264185956,0.0454537417771777
1.4234788553569684,0.0660500122781221
1.4239671842953414,0.0602384749092801
1.4244555132337142,0.0382129268775553
1.424943842172087,0.0307505449589093
1.42543217111046,0.0507927051309981
1.4259205000488329,0.0809376778391316
1.4264088289872057,0.1014820738250727
1.4268971579255787,0.1087519911463028
1.4273854868639515,0.1054692906936706
1.4278738158023243,0.0948476196689873
1.4283621447406971,0.084308850430266
1.42885047367907,0.0798936584172916
1.4293388026174432,0.0816566504774126
1.429827131555816,0.0804559211623344
1.4303154604941888,0.0636083182877165
1.4308037894325618,0.0331962109642429
1.4312921183709346,0.0011683739057985
1.4317804473093074,0.0289363382458706
1.4322687762476805,0.056770781796901
1.4327571051860533,0.0741694467010287
1.4332454341244265,0.0727640423352205
1.433733763062799,0.0527205850889326
1.434222092001172,0.0239454987537216
1.434710420939545,0.0075620137332111
1.4351987498779175,0.0204626970740104
1.4356870788162903,0.0539053761319396
1.4361754077546636,0.0869821735164496
1.4366637366930364,0.108149675102364
1.4371520656314094,0.1060592115987049
1.4376403945697822,0.0723390387946505
1.438128723508155,0.0287346784724011
1.438617052446528,0.010399051859215
1.4391053813849009,0.0140585027329418
1.4395937103232737,0.0063071191394228
1.440082039261647,0.0222082577142172
1.4405703682000195,0.0522786554893246
1.4410586971383923,0.0688560319023829
1.441547026076765,0.0717770645888786
1.442035355015138,0.0715537928090319
1.4425236839535112,0.0778275568335996
1.443012012891884,0.0876207550746257
1.4435003418302568,0.0936619344382722
1.4439886707686298,0.0875995404657033
1.4444769997070026,0.0581148033493793
1.4449653286453754,0.0111344097992835
1.4454536575837484,0.0257780579003315
1.4459419865221212,0.0363033956700679
1.4464303154604945,0.0312085147975367
1.446918644398867,0.0255599564555861
1.44740697333724,0.0273312846146443
1.447895302275613,0.045341919612488
1.4483836312139855,0.0734868487700023
1.4488719601523583,0.0849463010430783
1.4493602890907316,0.0722275118297639
1.4498486180291044,0.0576156723221744
1.4503369469674772,0.0545243673019413
1.4508252759058502,0.0541857295534275
1.451313604844223,0.0508261439722444
1.451801933782596,0.0539134116488094
1.4522902627209688,0.061629183331734
1.4527785916593416,0.0561890943819825
1.453266920597715,0.0425411747563759
1.4537552495360877,0.0418846584412315
1.4542435784744605,0.0463725323346874
1.454731907412833,0.0310060589394004
1.455220236351206,0.0004993262667587
1.455708565289579,0.0195989963704214
1.456196894227952,0.0154558340473569
1.4566852231663248,0.0053835127276427
1.4571735521046978,0.0072632266979802
1.4576618810430706,0.027263450467336
1.4581502099814434,0.060977436191077
1.4586385389198164,0.0927790485963872
1.4591268678581892,0.1081282039347361
1.459615196796562,0.1031016473539337
1.460103525734935,0.0848540029600548
1.460591854673308,0.0679965107323717
1.461080183611681,0.0624466046349101
1.4615685125500535,0.0631330143956076
1.4620568414884263,0.0571282356718073
1.4625451704267995,0.0458355970490012
1.4630334993651724,0.0433125577999711
1.4635218283035452,0.0496071419403068
1.4640101572419182,0.0495873346361701
1.464498486180291,0.0362559542469915
1.4649868151186638,0.0163148039381774
1.4654751440570368,0.0017220822074273
1.4659634729954096,0.0106362376253978
1.4664518019337829,0.0136120081443265
1.4669401308721557,0.0277033795791574
1.4674284598105285,0.0523803783972074
1.4679167887489013,0.0624016572750418
1.468405117687274,0.0486697948393029
1.468893446625647,0.0344817986804889
1.46938177556402,0.0449249963099557
1.4698701045023927,0.0737551379282288
1.4703584334407658,0.0899096104434375
1.4708467623791386,0.0786317014349952
1.4713350913175114,0.050084206500386
1.4718234202558844,0.0120245019922871
1.4723117491942572,0.0299694421148565
1.47280007813263,0.0642150675365143
1.473288407071003,0.0846442815382711
1.473776736009376,0.0993302240297557
1.474265064947749,0.1178239823229125
1.4747533938861217,0.1306673852943116
1.4752417228244945,0.1222313814512975
1.4757300517628675,0.0977378545326121
1.4762183807012403,0.0798967552064911
1.4767067096396131,0.0771848142931268
1.4771950385779862,0.069225961199007
1.477683367516359,0.0414615155151436
1.4781716964547318,0.0037154206853858
1.4786600253931048,0.0311963691930297
1.4791483543314776,0.0539752124850941
1.4796366832698506,0.0638341425311834
1.4801250122082237,0.0768856714399194
1.4806133411465965,0.097696590101935
1.4811016700849693,0.1040895873301517
1.481589999023342,0.0816685696702627
1.482078327961715,0.0485786681558104
1.482566656900088,0.0423232946086365
1.4830549858384607,0.0742342841728884
1.4835433147768335,0.1161861504668186
1.4840316437152066,0.1408115276816157
1.4845199726535794,0.1367132700717447
1.4850083015919524,0.1098555739802618
1.4854966305303252,0.0825633352726676
1.485984959468698,0.0675176537642015
1.486473288407071,0.0605855337847893
1.486961617345444,0.0554974500011584
1.4874499462838169,0.0477123739000492
1.4879382752221897,0.0336131541469569
1.4884266041605625,0.0128762429998086
1.4889149330989355,0.0084092948632575
1.4894032620373083,0.0257171161874071
1.4898915909756811,0.0457918679751236
1.4903799199140542,0.0710047603946616
1.490868248852427,0.086296717431947
1.4913565777907998,0.0802194447751274
1.4918449067291728,0.0648092576583671
1.4923332356675456,0.0609290919863597
1.4928215646059184,0.0725251155307496
1.4933098935442914,0.0856083368340806
1.4937982224826645,0.0885589906419
1.4942865514210373,0.0837705151036156
1.49477488035941,0.0792142581279659
1.495263209297783,0.0750872163280211
1.495751538236156,0.0633879896975885
1.4962398671745287,0.0408307698509146
1.4967281961129015,0.0174732967367936
1.4972165250512746,0.0078133371878634
1.4977048539896474,0.0117882840864048
1.4981931829280204,0.0126847400522176
1.4986815118663932,0.0027282908776159
1.499169840804766,0.0305126345430458
1.499658169743139,0.0558914756260003
1.5001464986815118,0.0705140815649138
1.5006348276198846,0.0792655301463968
1.5011231565582577,0.0866512058420509
1.5016114854966305,0.0893368453926818
1.5020998144350033,0.0859530739234512
1.5025881433733763,0.0813685724286987
1.5030764723117491,0.0753360202891889
1.5035648012501222,0.059745214252035
1.504053130188495,0.0358814623223017
1.5045414591268678,0.0165141425182302
1.5050297880652408,0.0088992665772324
1.5055181170036136,0.0088843594133627
1.5060064459419864,0.0072449247994714
1.5064947748803594,0.0012390719794612
1.5069831038187322,0.0144764947883344
1.5074714327571053,0.0281315726730647
1.507959761695478,0.0424743151063706
1.5084480906338509,0.0625039560751107
1.508936419572224,0.0874126859997946
1.5094247485105967,0.1132823292886139
1.5099130774489695,0.140009819845466
1.5104014063873423,0.1482886224293892
1.5108897353257154,0.1069954631515727
1.5113780642640882,0.0291528371869727
1.5118663932024612,0.0306653649444792
1.512354722140834,0.0405299431964614
1.512843051079207,0.0172657115168688
1.5133313800175798,0.0083168395867861
1.5138197089559526,0.0230749848463749
1.5143080378943257,0.020902101091889
1.5147963668326985,0.0037780124617701
1.5152846957710713,0.0407710629936016
1.5157730247094443,0.0667796003938292
1.5162613536478171,0.0702192701652386
1.51674968258619,0.063118314765988
1.517238011524563,0.0620344098340182
1.5177263404629358,0.0706018391187223
1.5182146694013088,0.0865412283695744
1.5187029983396816,0.1040830378930377
1.5191913272780544,0.1078566588130768
1.5196796562164274,0.0910632447768343
1.5201679851548002,0.0684270278592167
1.520656314093173,0.0496686608803613
1.521144643031546,0.0301070440402779
1.5216329719699189,0.0138041906209661
1.522121300908292,0.0122011515514949
1.5226096298466647,0.0229915539209379
1.5230979587850375,0.0279997490363556
1.5235862877234103,0.0136761713078322
1.5240746166617831,0.0135518592717426
1.524562945600156,0.0417433887613635
1.5250512745385292,0.0665825091434213
1.525539603476902,0.0819030092700238
1.526027932415275,0.0824380201901006
1.5265162613536478,0.0777390852511074
1.5270045902920206,0.0825772795247816
1.5274929192303937,0.0967204133734214
1.5279812481687665,0.1055656768608946
1.5284695771071393,0.1000685446159399
1.5289579060455123,0.0892610638570032
1.529446234983885,0.0851575687573819
1.529934563922258,0.0823872007664769
1.530422892860631,0.0637285406741198
1.5309112217990035,0.0249580194525795
1.5313995507373768,0.017622289397795
1.5318878796757496,0.0432875128660557
1.5323762086141224,0.0407820904916037
1.5328645375524954,0.0237439037492501
1.5333528664908682,0.0223493617371306
1.533841195429241,0.0417708708765889
1.534329524367614,0.0606164078076556
1.5348178533059869,0.0699493876856051
1.53530618224436,0.0783114729748539
1.5357945111827327,0.0854152278164499
1.5362828401211055,0.0799472483798654
1.5367711690594783,0.0598070783693407
1.537259497997851,0.0364461364467643
1.537747826936224,0.0227136723206062
1.5382361558745972,0.0171147627713519
1.53872448481297,0.0062685368258071
1.5392128137513428,0.0090673160862896
1.5397011426897158,0.0163703360493462
1.5401894716280886,0.0203398030811325
1.5406778005664616,0.0343448988958822
1.5411661295048344,0.0512024210469852
1.5416544584432073,0.0559010227452285
1.5421427873815805,0.0603527767154108
1.542631116319953,0.0860512867733271
1.543119445258326,0.1175157947916127
1.543607774196699,0.1241669530761822
1.5440961031350715,0.1062606029274461
1.5445844320734448,0.0801330255513878
1.5450727610118176,0.0563976184991966
1.5455610899501904,0.0385194921467654
1.5460494188885634,0.0203479990935912
1.5465377478269362,0.0004840094241611
1.547026076765309,0.010037919715673
1.547514405703682,0.0108812790721077
1.5480027346420548,0.016256625766642
1.5484910635804277,0.0300897191454623
1.548979392518801,0.0457805907829445
1.5494677214571737,0.0621528992947322
1.5499560503955463,0.0805436365227127
1.550444379333919,0.0951708568210618
1.550932708272292,0.094266978283499
1.5514210372106652,0.0755001175633697
1.551909366149038,0.0579485077761336
1.5523976950874108,0.0654118075872979
1.5528860240257838,0.0960376859423183
1.5533743529641566,0.1168044483133857
