Time (s),Filtered EMG Contracted
0.0,1.2711966497966724e-06
0.09765625,3.349719491756169e-05
0.1953125,0.00010320983584884522
0.29296875,9.450524464179565e-05
0.390625,8.89519706054188e-05
0.48828125,8.198477896444365e-05
0.5859375,8.514516602850765e-05
0.68359375,8.460247446100785e-05
0.78125,9.03429635341792e-05
0.87890625,6.579713689610805e-05
0.9765625,7.953812785984188e-05
1.07421875,0.00010866692719923606
1.171875,8.661361296400162e-05
1.26953125,4.157290311474186e-05
1.3671875,6.439638953341052e-05
1.46484375,8.680362134727447e-05
1.5625,0.00010311849069714315
1.66015625,0.00011030900724901541
1.7578125,8.997870305522123e-05
1.85546875,8.332178298217839e-05
1.953125,8.496009723734117e-05
2.05078125,0.00014213287079738881
2.1484375,0.00014633736404158482
2.24609375,9.591832684560867e-05
2.34375,9.565894055346623e-05
2.44140625,9.70057779420784e-05
2.5390625,6.382810845815814e-05
2.63671875,0.00017837436517765715
2.734375,3.0227723919631983e-05
2.83203125,5.238888994410258e-06
2.9296875,0.00011189082055041132
3.02734375,0.000330499995049208
3.125,0.0001963579345680084
3.22265625,0.00021939381731323284
3.3203125,0.00014952574650011876
3.41796875,0.00025702330563664023
3.515625,0.0002571848023180799
3.61328125,7.764845706709547e-05
3.7109375,0.00014466626674061096
3.80859375,0.0003081061542979755
3.90625,0.00022616888496699837
4.00390625,0.0004112892045421922
4.1015625,0.00047505455324480493
4.19921875,0.00024994550344262657
4.296875,0.00014387466434024907
4.39453125,7.450945437506194e-05
4.4921875,0.00031182197774914667
4.58984375,0.0008329619916594792
4.6875,0.0006807957417628149
4.78515625,0.00022717733805845396
4.8828125,0.0005787852656931872
4.98046875,0.0005308887782317282
5.078125,0.001425108021884974
5.17578125,0.0006873254106849596
5.2734375,0.0005738000658381205
5.37109375,0.0004214348611539115
5.46875,0.0011605645747029417
5.56640625,0.0008821623668762683
5.6640625,0.0005998454017208639
5.76171875,0.0005245736184801468
5.859375,0.0010060348514553171
5.95703125,0.0008195655987094656
6.0546875,0.0009296736890019637
6.15234375,0.000817558873513877
6.25,0.0005376082188225199
6.34765625,0.0004219800794570078
6.4453125,0.0007452584270022823
6.54296875,0.0012376534350560557
6.640625,0.0007351884336528762
6.73828125,0.0002720953543200102
6.8359375,0.0006290917840700037
6.93359375,0.0014386791869600041
7.03125,0.0012068643363113906
7.12890625,0.0003546304558827141
7.2265625,0.0017425190508257825
7.32421875,0.0012938163194769745
7.421875,0.0002927668152531413
7.51953125,0.0016879670483880616
7.6171875,0.0016159629821877468
7.71484375,0.0010146078344856848
7.8125,0.0009412445531135421
7.91015625,0.0002799421220603334
8.0078125,0.00014617042210883282
8.10546875,0.001027379675136459
8.203125,0.00048694679588227006
8.30078125,0.0017701425165192143
8.3984375,0.001070301147908359
8.49609375,0.0010717455942504538
8.59375,0.0009501772432716007
8.69140625,0.0012719043650895067
8.7890625,0.0009352803259907445
8.88671875,0.0003966182559350875
8.984375,0.0012224511928233006
9.08203125,0.0006715071026335489
9.1796875,0.0007950667263361581
9.27734375,0.001017657571224785
9.375,0.00037347905079992776
9.47265625,0.0006808897083327413
9.5703125,0.0006629694686364985
9.66796875,0.0008000714486659764
9.765625,0.0008752288688371754
9.86328125,0.0010689337539545876
9.9609375,0.0005229353863066198
10.05859375,0.0010505820682279777
10.15625,0.0022863012792442594
10.25390625,0.0011382600834570415
10.3515625,0.0009944947471662259
10.44921875,0.0005927392143395461
10.546875,0.001089467009036993
10.64453125,0.0008866973579355277
10.7421875,0.001195242556548545
10.83984375,0.0014013077207390141
10.9375,0.00029971588169333654
11.03515625,0.0013334323657968302
11.1328125,0.000696837504234569
11.23046875,0.0005286988175184505
11.328125,0.0008324473131596721
11.42578125,0.0001738991177607416
11.5234375,0.0005699757268571342
11.62109375,0.0005801319203389025
11.71875,0.00188407144028564
11.81640625,0.001982186915621457
11.9140625,0.0013638112115715616
12.01171875,0.0007924873510701024
12.109375,0.00026903485725278246
12.20703125,0.001018419983897321
12.3046875,0.00020489181268638744
12.40234375,0.0021857715804618617
12.5,0.0006809678595745629
12.59765625,0.002322254040436717
12.6953125,0.0005015157532495863
12.79296875,0.002379475933954298
12.890625,0.001264885363200334
12.98828125,0.0019649233658259966
13.0859375,0.0015777443600326743
13.18359375,0.0007242961141230618
13.28125,0.0008948069331100811
13.37890625,0.001823839292974836
13.4765625,0.0013592304318472475
13.57421875,0.0017891878815973726
13.671875,0.00041123006862771197
13.76953125,0.001352031038032834
13.8671875,0.0007816567617700353
13.96484375,0.0016375429176404511
14.0625,0.0010482451428071285
14.16015625,0.000568487551794553
14.2578125,0.0009071159415118614
14.35546875,0.00048479352973177344
14.453125,0.0016690588058363171
14.55078125,0.0019412539777638616
14.6484375,0.0006887971604070536
14.74609375,0.00048003000313381265
14.84375,0.000581059447389724
14.94140625,0.001747961728388316
15.0390625,0.0008778596207155867
15.13671875,0.002951358528731899
15.234375,0.0014925781605178519
15.33203125,0.0008476998403511063
15.4296875,0.0015117301147480973
15.52734375,0.0016144965918332178
15.625,0.0024868618822345826
15.72265625,0.0012078909185595065
15.8203125,0.001221858365405136
15.91796875,0.0005610294559917667
16.015625,0.002144793645877251
16.11328125,0.0016625781301768889
16.2109375,0.000324777310176582
16.30859375,0.0010128109701958742
16.40625,0.000615763413545909
16.50390625,0.0008665842129898437
16.6015625,0.0011653435453060686
16.69921875,0.0008885516868031114
16.796875,0.0008276956863711856
16.89453125,0.000855699465978473
16.9921875,0.0013251240534699789
17.08984375,0.0016513241732220272
17.1875,0.0011448491111537805
17.28515625,0.0006589425241410817
17.3828125,0.00042396053368283444
17.48046875,0.0017510739494250123
17.578125,0.0016606884351201574
17.67578125,0.0013200132942531603
17.7734375,0.0014529351904047725
17.87109375,0.0007343570456905644
17.96875,0.001994886525708935
18.06640625,0.0004892927522569202
18.1640625,0.00042972581400357976
18.26171875,0.002716338227442318
18.359375,0.002750887655425185
18.45703125,0.0020099083443207845
18.5546875,0.0012286042902180587
18.65234375,0.0010376575387910185
18.75,0.0018813781173075738
18.84765625,0.002905787107997896
18.9453125,0.0014981925913040185
19.04296875,0.0006138746972480321
19.140625,0.0017469186319827813
19.23828125,0.0013680315213401265
19.3359375,0.0003762758781115168
19.43359375,0.0006324155814282203
19.53125,0.0009910448705421776
19.62890625,0.0006621090855986427
19.7265625,0.0015442153214466044
19.82421875,0.001985055719256993
19.921875,0.0009270275642345718
20.01953125,0.0026734944034060223
20.1171875,0.0010297998665228408
20.21484375,0.0019404339620936217
20.3125,0.0017811271083379402
20.41015625,0.00039827476384186314
20.5078125,0.0004686814231479447
20.60546875,0.0012264051116091072
20.703125,0.0018792287513322765
20.80078125,0.0016712084537734773
20.8984375,0.002028014330089037
20.99609375,0.0008115817227667406
21.09375,0.0021837574746221577
21.19140625,0.0021357451827817937
21.2890625,0.0012200206101645513
21.38671875,0.0014735457111055724
21.484375,0.0006488592945551506
21.58203125,0.0018440590955265978
21.6796875,0.0014201558226104296
21.77734375,0.0011060554665235263
21.875,0.0016552308905970461
21.97265625,0.0006582200526085715
22.0703125,0.0015670999312274805
22.16796875,0.0022759085532709695
22.265625,0.0009045697741330519
22.36328125,0.0017661887200752888
22.4609375,0.001520376149431675
22.55859375,0.0010406819729066293
22.65625,0.0021787369754412123
22.75390625,0.001107492646847902
22.8515625,0.000790997688552543
22.94921875,0.001627785780675822
23.046875,0.00169210138395529
23.14453125,0.0020086042589191537
23.2421875,0.00044213826832488473
23.33984375,0.0006005235564625852
23.4375,0.0019830632450966138
23.53515625,0.002043584489293821
23.6328125,0.0018185169563417981
23.73046875,0.0013831403996251636
23.828125,9.114932034622233e-05
23.92578125,0.002432523564501281
24.0234375,0.0010449789327777509
24.12109375,0.0022790219522994017
24.21875,0.0012482339959977518
24.31640625,0.001968195471519862
24.4140625,0.000959368392037951
24.51171875,0.0019152952531026415
24.609375,0.0008021037475746435
24.70703125,0.0028640963365557195
24.8046875,0.0007595654934702461
24.90234375,0.0017690862275632848
25.0,0.002725047606428792
25.09765625,0.0012429868526393445
25.1953125,0.0019344906551600613
25.29296875,0.0005114875095385751
25.390625,0.0013397069937362582
25.48828125,0.0005443356564590346
25.5859375,0.0015274330314602562
25.68359375,0.0016929703272941937
25.78125,0.003236879603796646
25.87890625,0.0006664796825789862
25.9765625,0.00044219640528509873
26.07421875,0.0006228981420674413
26.171875,0.002035858827147478
26.26953125,0.003562087837830789
26.3671875,0.0034597170117371904
26.46484375,0.0005938072771074938
26.5625,0.001757725914019782
26.66015625,0.0017712808687648726
26.7578125,0.0022846300249081803
26.85546875,0.0011143598857955162
26.953125,0.001978202677492151
27.05078125,0.002469414125232685
27.1484375,0.0006886942734073749
27.24609375,0.0005558456920140784
27.34375,0.0014183819805253471
27.44140625,0.003831809749975115
27.5390625,0.0022813945520820168
27.63671875,0.003913387563907489
27.734375,0.003358532198493769
27.83203125,0.001865209186911705
27.9296875,0.002223753191948098
28.02734375,0.00024505671554125836
28.125,0.0012091520811735228
28.22265625,0.0007558630609363474
28.3203125,0.001367711116689014
28.41796875,0.003468217366255222
28.515625,0.002779285116169175
28.61328125,0.0036027962827833698
28.7109375,0.004240238551612352
28.80859375,0.0053221905765928335
28.90625,0.007159102286348514
29.00390625,0.010621542111064057
29.1015625,0.018778384955997162
29.19921875,0.03445932740257196
29.296875,0.04427746962211157
29.39453125,0.04098428730559062
29.4921875,0.024274180477326237
29.58984375,0.012790563183580052
29.6875,0.0077378994265818474
29.78515625,0.005396973933022578
29.8828125,0.004480278281443249
29.98046875,0.0033607054907730063
30.078125,0.002897583023701245
30.17578125,0.0030680279870808937
30.2734375,0.0018006491551803882
30.37109375,0.0015239056818688566
30.46875,0.00238551036872852
30.56640625,0.0014547875480204035
30.6640625,0.002433289018125836
30.76171875,0.001677176408845254
30.859375,0.000863944869687729
30.95703125,0.0014660863715309782
31.0546875,0.00062418465428452
31.15234375,0.0008583624527330152
31.25,0.002010197378401936
31.34765625,0.001795458814746318
31.4453125,0.0004764377763446361
31.54296875,0.0012033505259963452
31.640625,0.0016075795065228456
31.73828125,0.001436941206524999
31.8359375,0.0024948567518030904
31.93359375,0.0005779410685506643
32.03125,0.0013188856609341664
32.12890625,0.0013705145741539288
32.2265625,0.001291249971956541
32.32421875,0.0012462193276930064
32.421875,0.0007158670199375594
32.51953125,0.001418306500886912
32.6171875,0.0024830599646522627
32.71484375,0.0020841274078221795
32.8125,0.000790910030385868
32.91015625,0.0015552131930303892
33.0078125,0.0011189626935969824
33.10546875,0.0016452714049167564
33.203125,0.00037897090101526366
33.30078125,0.0017549158869787408
33.3984375,0.0009124409695716214
33.49609375,0.0009380554960265273
33.59375,0.0014180825398850405
33.69140625,0.002347504781730352
33.7890625,0.0006061201611537434
33.88671875,0.0012121329259799163
33.984375,0.0013574200833951667
34.08203125,0.0026880145783021673
34.1796875,0.0025299661219597928
34.27734375,0.0006675989387172752
34.375,0.0004249271116962875
34.47265625,0.0027400369174412787
34.5703125,0.0007377862663750593
34.66796875,0.000427101143657922
34.765625,0.0009640807186709334
34.86328125,0.0007134025735179167
34.9609375,0.0006588312278408811
35.05859375,0.0008014242968467482
35.15625,0.002090345712769903
35.25390625,0.0023916214309499845
35.3515625,0.0009948928671234107
35.44921875,0.0009487641911425739
35.546875,0.0015502689664089583
35.64453125,0.0010329317494578545
35.7421875,0.00027636011379402446
35.83984375,0.001318430874631515
35.9375,0.0016042180662743577
36.03515625,0.0010928616719986413
36.1328125,0.002047121505747335
36.23046875,0.002015427767436385
36.328125,0.001526619483919436
36.42578125,0.0015444970532432249
36.5234375,0.002357269570350318
36.62109375,0.001162276121424508
36.71875,0.0011474063623223643
36.81640625,0.0008812806822716577
36.9140625,0.0016024342193460739
37.01171875,0.00064734412286835
37.109375,0.0005759446879554641
37.20703125,0.0008187549507926884
37.3046875,0.0004757494163284653
37.40234375,0.0037878429739121133
37.5,0.0015213219980036285
37.59765625,0.0009656285919713525
37.6953125,0.0016805331484539808
37.79296875,0.0008134144834248297
37.890625,0.0010342259160129844
37.98828125,0.0015355429660144741
38.0859375,0.0010383827391235564
38.18359375,0.0007123285235700971
38.28125,0.0015960255185478044
38.37890625,0.0017086295793980616
38.4765625,0.0015474546666530387
38.57421875,0.0005250478474645791
38.671875,0.0017815048250388824
38.76953125,0.0012231602566187307
38.8671875,0.0013841502856246704
38.96484375,0.0019820521093041068
39.0625,0.0011325603103953506
39.16015625,0.0007420902398718509
39.2578125,0.0018787175262751346
39.35546875,0.0007802043818512334
39.453125,0.0009907466703945524
39.55078125,0.0014906083484835997
39.6484375,0.0006327719489033506
39.74609375,0.0006145604477261332
39.84375,0.0032056543791985485
39.94140625,0.0006464714627319629
40.0390625,0.0005484899581391369
40.13671875,0.001819726597499179
40.234375,0.002246225413710391
40.33203125,0.001651274866479589
40.4296875,0.0012425248585415587
40.52734375,0.0013169660947777882
40.625,0.0020300915636781982
40.72265625,0.0016234974679401608
40.8203125,0.0001293449768325033
40.91796875,0.0010021792822488861
41.015625,0.0020807768744579586
41.11328125,0.0028619799883261962
41.2109375,0.0007665649899956491
41.30859375,0.0021254169264234945
41.40625,0.0007481541386104751
41.50390625,0.0019306602584881372
41.6015625,0.0002857041939270978
41.69921875,0.0013528673046439258
41.796875,0.00015076460052661472
41.89453125,0.00043592915866795035
41.9921875,0.00303827339060096
42.08984375,0.00264315138986142
42.1875,0.000617860527522128
42.28515625,0.001626025615588246
42.3828125,0.0006856530734278801
42.48046875,0.0010168445108178395
42.578125,0.0026191704401091463
42.67578125,0.0015434593226290108
42.7734375,0.0016602289430567314
42.87109375,0.0018204326949516397
42.96875,0.001150379966474876
43.06640625,0.001456676221583849
43.1640625,0.0021274728688515606
43.26171875,0.0016349007090428202
43.359375,0.001256186942985373
43.45703125,0.0014214380479330986
43.5546875,0.0010709002755313983
43.65234375,0.0009985138112051874
43.75,0.0015696918897069893
43.84765625,0.0020602149008730787
43.9453125,0.001472302982705243
44.04296875,0.0026982501546680983
44.140625,0.0012852998037754275
44.23828125,0.0012155918201212723
44.3359375,0.001994745929796249
44.43359375,0.0009352173563048349
44.53125,0.0011134158552655513
44.62890625,0.001395944250828603
44.7265625,0.0009023244303321674
44.82421875,0.0013569525870916186
44.921875,0.0020104507627683415
45.01953125,0.0028096163304781384
45.1171875,0.0009099028621374352
45.21484375,0.0016359578290846936
45.3125,0.00039344396140234065
45.41015625,0.000813946767189964
45.5078125,0.0006070418382186677
45.60546875,0.0006045502725981386
45.703125,0.001368991944199375
45.80078125,0.000602369623061912
45.8984375,0.0017109502486232463
45.99609375,0.0018732004549852181
46.09375,0.0010789202026957399
46.19140625,0.00044835871235633965
46.2890625,0.0011282178840066966
46.38671875,0.0006568602332709003
46.484375,0.0031801106416365467
46.58203125,0.0014704219722881243
46.6796875,0.0016149596630476411
46.77734375,0.000215665783374164
46.875,0.0007304502812294444
46.97265625,0.0013267913692688491
47.0703125,0.0011888349548401307
47.16796875,0.002617723688507426
47.265625,0.0012417770251678401
47.36328125,0.0003250318204059052
47.4609375,0.000767115819705057
47.55859375,0.00166192245873376
47.65625,0.0017138107767691365
47.75390625,0.0006844705854267431
47.8515625,0.0013514157978946329
47.94921875,0.0006828424327862259
48.046875,0.0007378273905529829
48.14453125,0.002179510614419826
48.2421875,0.0004038106929897211
48.33984375,0.0011462162744504169
48.4375,0.0012452621833145333
48.53515625,0.0013511707262906301
48.6328125,0.000927803643836516
48.73046875,0.0024481637972514642
48.828125,0.0014159799941572875
48.92578125,0.0030601828739607144
49.0234375,0.0008798018046934196
49.12109375,0.00025802685450500854
49.21875,0.002338728635099599
49.31640625,0.0013456790966823121
49.4140625,0.0012993231085846458
49.51171875,0.0006261753107939622
49.609375,0.00043520132015641947
49.70703125,0.002472855075050155
49.8046875,0.0006778158107581523
49.90234375,0.0016271112020206542
50.0,0.0006382805274278109
50.09765625,0.0011232331605491544
50.1953125,0.002142319062563047
50.29296875,0.0024104103391127895
50.390625,0.0013593524063273464
50.48828125,0.0007437786259127958
50.5859375,0.0009859659928755226
50.68359375,0.0009410309503814
50.78125,0.001449521755593326
50.87890625,0.0003962718226965535
50.9765625,0.0010692441881122439
51.07421875,0.0005623088707589112
51.171875,0.0016901380942700578
51.26953125,0.0017032876868234806
51.3671875,0.001061594288157773
51.46484375,0.0009821146720492393
51.5625,0.0005816790220311663
51.66015625,0.0005608768439957329
51.7578125,0.0008152381272997768
51.85546875,0.002227749935462092
51.953125,0.0010861754626335031
52.05078125,0.0014509180613075598
52.1484375,0.00034207625527592276
52.24609375,0.00095911236432137
52.34375,0.000493200095869884
52.44140625,0.00022739211189437932
52.5390625,0.0008444959400166196
52.63671875,0.0008026557531925823
52.734375,0.0012687293237733461
52.83203125,0.0012625974012696432
52.9296875,0.0023938540079563066
53.02734375,0.002563448207838593
53.125,0.0007679049291306476
53.22265625,8.540806445457782e-05
53.3203125,0.002028100834517961
53.41796875,0.0007096282906042271
53.515625,0.0011050498465652238
53.61328125,0.0005441055034777619
53.7109375,0.000878483221614612
53.80859375,0.0006514311081138864
53.90625,0.0011029503357927988
54.00390625,0.001768435654781469
54.1015625,0.0015175715150192138
54.19921875,0.0020516302910281
54.296875,0.0010042631524598406
54.39453125,0.0005869901346379605
54.4921875,0.0013191952225672318
54.58984375,0.001349138266071875
54.6875,0.002377748377659018
54.78515625,0.0007568523966801544
54.8828125,0.0013059506480242913
54.98046875,0.0020372454114750325
55.078125,0.0023883475883733855
55.17578125,0.0014685048766010513
55.2734375,0.0009393988018815827
55.37109375,0.0017666548981188472
55.46875,0.001016611151703516
55.56640625,0.0005813390890030367
55.6640625,0.0013241962858014692
55.76171875,0.0007352247734131136
55.859375,0.00013592341932314636
55.95703125,0.0012356937315477544
56.0546875,0.0017142541624939655
56.15234375,0.0006071955158444304
56.25,0.0013260865885104717
56.34765625,0.0016969357317278598
56.4453125,0.000516725932940569
56.54296875,0.0005044358294213025
56.640625,0.0008730763992382941
56.73828125,0.00044627258082259006
56.8359375,0.00020128070124573037
56.93359375,0.0013486110936376501
57.03125,0.0004947060070819748
57.12890625,0.0008645200939740053
57.2265625,0.0006895200274632165
57.32421875,0.00020662429610519823
57.421875,0.0005044572048466957
57.51953125,0.00023041000300123556
57.6171875,0.00018124363424621632
57.71484375,6.542107146835539e-05
57.8125,2.4690310166141332e-05
57.91015625,1.4002282713038973e-05
58.0078125,9.313593597620826e-05
58.10546875,9.497899246076748e-05
58.203125,3.1490304225097064e-05
58.30078125,3.330903684558007e-05
58.3984375,2.9334511523589437e-05
58.49609375,3.700116162839731e-05
58.59375,3.9077953269713314e-05
58.69140625,3.514618875262265e-05
58.7890625,3.427036347254116e-05
58.88671875,3.3854867471730934e-05
58.984375,3.301177875283039e-05
59.08203125,3.2578370703919105e-05
59.1796875,3.205440386049729e-05
59.27734375,3.151544417438249e-05
59.375,3.0931622896878946e-05
59.47265625,3.0323878090292902e-05
59.5703125,2.9690313618784356e-05
59.66796875,2.902878773711116e-05
59.765625,2.8336721907832078e-05
59.86328125,2.7611843899774768e-05
59.9609375,2.685173263531911e-05
60.05859375,2.6053824579251616e-05
60.15625,2.5215386651962832e-05
60.25390625,2.4333518019081138e-05
60.3515625,2.340523639739303e-05
60.44921875,2.2426979539844506e-05
60.546875,2.139824583509161e-05
60.64453125,2.030848208217956e-05
60.7421875,1.9142026244898328e-05
60.83984375,1.7901757037353395e-05
60.9375,1.6534187607582347e-05
61.03515625,1.5360165138303103e-05
61.1328125,1.4131179895188146e-05
61.23046875,1.1210833894111026e-05
61.328125,1.1557087475177602e-05
61.42578125,7.862097488155112e-06
61.5234375,6.440352823771267e-06
61.62109375,2.5939770230407625e-05
61.71875,1.6306208973750494e-05
61.81640625,1.9409626172212463e-05
61.9140625,8.176383950045832e-05
62.01171875,2.3708884336994374e-05
62.109375,6.11242640908093e-05
62.20703125,0.0001466951514523843
62.3046875,0.00016516513611896622
62.40234375,7.845096816325381e-05
62.5,0.0003847741372797568
62.59765625,0.0003211314944860039
62.6953125,0.0006161252377416345
62.79296875,0.00019671685511049426
62.890625,0.00018460504832460624
62.98828125,0.0004289950419162105
63.0859375,0.000726560349536259
63.18359375,0.0003548947153215769
63.28125,0.00044951109786657556
63.37890625,0.0010372479347528676
63.4765625,0.0006721968711127756
63.57421875,0.0006307786708770882
63.671875,0.0007023438877079608
63.76953125,0.0007096778470898635
63.8671875,0.0006774178108649499
63.96484375,0.0013515144841103716
64.0625,0.000927567043128064
64.16015625,0.0010785305211899671
64.2578125,0.0013538253634666373
64.35546875,0.0005010968051421248
64.453125,0.0014909304212704076
64.55078125,0.0010559991143902973
64.6484375,0.0007019459477951635
64.74609375,0.001167388970669921
64.84375,0.0007387479613906771
64.94140625,0.0010528127090386758
65.0390625,0.0010818799937392862
65.13671875,0.0008595643292790183
65.234375,0.00045132379166399695
65.33203125,0.0005058867434368869
65.4296875,0.0009442311117292643
65.52734375,0.0021450857583930785
65.625,0.0009774240559536507
65.72265625,0.0011864545239337395
65.8203125,0.0005872971572517781
65.91796875,0.001213831206675601
66.015625,0.0016907650795008411
66.11328125,0.0009548860417716037
66.2109375,0.0014590774284954672
66.30859375,0.0012583611241608304
66.40625,0.001323816554424938
66.50390625,0.0009653051698533144
66.6015625,0.0012447557112210694
66.69921875,0.0007164386047540617
66.796875,0.0007059848471470673
66.89453125,0.0011365487253179013
66.9921875,0.0006725129531844021
67.08984375,0.001973769232054232
67.1875,0.00043217965346779315
67.28515625,0.00014535613820835605
67.3828125,0.0004916864162331215
67.48046875,0.0008788973136222043
67.578125,0.001391959309083297
67.67578125,0.0009014548359183032
67.7734375,0.0012649691943319844
67.87109375,0.0015551874787459261
67.96875,0.0010615542163764876
68.06640625,0.00017326620583898802
68.1640625,0.0024090943846299707
68.26171875,0.0011016978356151144
68.359375,0.00014944468834586372
68.45703125,0.001300770767766749
68.5546875,0.0006711964151956433
68.65234375,0.0006214812232910877
68.75,0.000935721326602124
68.84765625,0.00024454679880330145
68.9453125,0.0011134557939382502
69.04296875,0.00048056123022234315
69.140625,0.0008340661797794126
69.23828125,0.0005311397761055476
69.3359375,0.0016302672626544606
69.43359375,0.0010620280179897957
69.53125,0.0009564341626233101
69.62890625,0.0012808196961175055
69.7265625,0.0004894425173191131
69.82421875,0.001779006944324928
69.921875,0.0004969264340887639
70.01953125,0.0015778283324838643
70.1171875,0.00047007265451709176
70.21484375,0.001497636070239917
70.3125,0.001281204321468374
70.41015625,0.0005755249630158215
70.5078125,0.00038004095731907894
70.60546875,0.001159629411629918
70.703125,0.000974461123177617
70.80078125,0.0006121249557572575
70.8984375,0.0007689496466849045
70.99609375,0.0013412435770491045
71.09375,0.0012193631148705898
71.19140625,0.0025550811971756047
71.2890625,0.0007786160265387998
71.38671875,0.00014050644090250983
71.484375,0.0005164591673728133
71.58203125,0.0010734178388978669
71.6796875,0.00035322330693340827
71.77734375,0.0009600420323644262
71.875,0.0011747640525117623
71.97265625,0.0009386127865650261
72.0703125,0.00012407337540704583
72.16796875,0.000866535658279808
72.265625,0.0018080059395963423
72.36328125,0.0007883576189656356
72.4609375,0.00024818666619214454
72.55859375,0.0010071035266474404
72.65625,0.0004558141165068874
72.75390625,0.001589159874596237
72.8515625,0.0004590385231391604
72.94921875,0.0022451766811587936
73.046875,0.001438199585807343
73.14453125,0.0015071283332456912
73.2421875,0.0002571030259184202
73.33984375,0.0005630037116538916
73.4375,0.0011185790157866768
73.53515625,0.0019145331727138497
73.6328125,0.001919545461668332
73.73046875,0.0014810329808397152
73.828125,0.0013886634725380092
73.92578125,0.000604122465623998
74.0234375,0.0015001925848532611
74.12109375,0.0011881388765060885
74.21875,0.0007998349658217875
74.31640625,0.001356134547914875
74.4140625,0.0008051442161908784
74.51171875,0.0008691887426714987
74.609375,0.0010890620222652604
74.70703125,0.0013942005962143075
74.8046875,0.0027532071546431075
74.90234375,0.0019187412582427788
75.0,0.0016168389327538973
75.09765625,0.0010878896965718576
75.1953125,0.0009293007205485181
75.29296875,0.00017282580887823288
75.390625,0.00021874996629471372
75.48828125,0.0006455854513022989
75.5859375,0.0005760265183972562
75.68359375,0.0016274997598753741
75.78125,0.0016033816774524926
75.87890625,0.0022444810704243994
75.9765625,0.0005068521990476818
76.07421875,0.0014866302716750922
76.171875,0.0013300585026435206
76.26953125,0.0004041018973741418
76.3671875,0.001510378968640139
76.46484375,0.0009092241861879496
76.5625,0.00071244198028376
76.66015625,0.001346250862310016
76.7578125,0.0010228625727272528
76.85546875,0.000532302443281217
76.953125,0.0005740687674706913
77.05078125,0.001336555813117224
77.1484375,0.0012818761004460598
77.24609375,0.00030354164328720356
77.34375,0.0006561608055048781
77.44140625,0.0008375745602912689
77.5390625,0.0007619800828454577
77.63671875,0.0016224147696897496
77.734375,0.000906499772113931
77.83203125,0.0005960185011892132
77.9296875,0.0014109112502597675
78.02734375,0.0014391901242131356
78.125,0.0009732947362941197
78.22265625,0.0009556744609875247
78.3203125,0.0006976194788671976
78.41796875,0.0008354988737461086
78.515625,0.0012178484944206185
78.61328125,0.0016627902305310742
78.7109375,0.0005930045413129702
78.80859375,0.0008090806747829945
78.90625,9.561123478254284e-05
79.00390625,0.000613465439173689
79.1015625,0.0003327497743532915
79.19921875,0.0015699642155118723
79.296875,0.0008333356289798948
79.39453125,0.0013859771171559378
79.4921875,0.0002634740824039301
79.58984375,0.0005653481355797535
79.6875,0.0009400663449357278
79.78515625,0.0007453598580900799
79.8828125,0.0007469612137626295
79.98046875,0.0013621135629506298
80.078125,0.0005359842498564508
80.17578125,0.0002652747413735012
80.2734375,0.00039657831454666353
80.37109375,0.00042719202331206654
80.46875,0.0011269104458094454
80.56640625,0.0004457452900208892
80.6640625,0.00166908863050079
80.76171875,0.001101832995414883
80.859375,0.00018090125244127673
80.95703125,0.00023330312281873448
81.0546875,0.001095561027639955
81.15234375,0.0016102048676001858
81.25,0.0007613666469573035
81.34765625,0.001091571943081033
81.4453125,0.0014336925117737008
81.54296875,0.0004600716489900616
81.640625,0.00024333364550180992
81.73828125,0.0009567843765970577
81.8359375,0.0002388253397205078
81.93359375,0.0007758388798484669
82.03125,0.0001250179072871403
82.12890625,0.0011943561398079772
82.2265625,0.0007102113638285705
82.32421875,0.0010356974558571493
82.421875,0.0005541151433834685
82.51953125,0.0006661937892682619
82.6171875,0.0005150564043690692
82.71484375,0.0010123213624438463
82.8125,0.0003491863323931803
82.91015625,0.0004827930543816809
83.0078125,0.0004728715435955951
83.10546875,0.0012092355428762961
83.203125,0.0004680556031152808
83.30078125,0.0003483552256333985
83.3984375,0.00037395680173625903
83.49609375,0.000905741446779601
83.59375,0.0010353325753347422
83.69140625,0.0001023984164043199
83.7890625,0.0011233499766958603
83.88671875,0.0006464529036218965
83.984375,0.0019639229040296535
84.08203125,0.0011284387089547918
84.1796875,0.0015296356410572376
84.27734375,0.0012149135634646534
84.375,0.0002851581495987375
84.47265625,0.0013744748771004922
84.5703125,0.0007465638321988262
84.66796875,0.0007089858394980302
84.765625,0.00121396512854682
84.86328125,0.000845652633097859
84.9609375,0.0014535714731162418
85.05859375,0.000854384403620476
85.15625,0.00026448592667384184
85.25390625,0.0005679276222212093
85.3515625,0.0010282356746775835
85.44921875,0.0012211241293142339
85.546875,0.0006885686544806105
85.64453125,0.0017435594858659503
85.7421875,0.000994420051727709
85.83984375,0.0010375128464719659
85.9375,0.0011582743208345067
86.03515625,0.0008173322773522963
86.1328125,0.0011155061181854998
86.23046875,0.0009061205580549955
86.328125,0.0009659028351406214
86.42578125,0.0009309167864739742
86.5234375,0.0006691342913057207
86.62109375,0.001256445514080978
86.71875,0.0011731354231562926
86.81640625,0.0006192155097827905
86.9140625,0.0009252139514829011
87.01171875,0.00031026799065495046
87.109375,0.0009017893718082959
87.20703125,0.0007032918355374756
87.3046875,0.00014595890712951404
87.40234375,0.0013177702611249752
87.5,0.0006662934835231071
87.59765625,0.0014916288986612034
87.6953125,0.0011809640136225446
87.79296875,0.0008302357026804196
87.890625,0.00021753522799107874
87.98828125,0.00012888911835779086
88.0859375,0.0006173675831535732
88.18359375,0.0007489495606818855
88.28125,0.0005194423841077971
88.37890625,0.0010280680099659847
88.4765625,0.0012246937780561685
88.57421875,0.0009483439241668328
88.671875,0.0008523735118848637
88.76953125,0.000648397345409166
88.8671875,0.0012957243781606118
88.96484375,0.0010393387756879324
89.0625,0.001228295490053052
89.16015625,0.0014599656461292583
89.2578125,0.0009154205171384515
89.35546875,0.00026873039288767195
89.453125,0.000301748115399271
89.55078125,0.00047624854427301714
89.6484375,0.0017611119869956966
89.74609375,0.00029815175279730314
89.84375,0.000411720591390459
89.94140625,0.0009768538659555006
90.0390625,0.0011545844761580162
90.13671875,0.0004680810385850269
90.234375,0.0008358606497931844
90.33203125,0.0014782881645480027
90.4296875,0.0007646379933235743
90.52734375,0.0003410925904404065
90.625,0.0007610966255495556
90.72265625,0.0008467139470258791
90.8203125,0.0005732479776481154
90.91796875,0.0008682632757524736
91.015625,0.0012330988010308794
91.11328125,0.0006109116440052744
91.2109375,0.0012402860972682214
91.30859375,0.001232299081858481
91.40625,0.0005094207006336803
91.50390625,0.0007762469743035126
91.6015625,0.001737957052844196
91.69921875,0.0008136341935973158
91.796875,0.0005113863914761543
91.89453125,0.0006754534723446084
91.9921875,0.002026721081976535
92.08984375,0.001186198385739859
92.1875,0.0009517574178750004
92.28515625,0.0002890533715494489
92.3828125,0.000757870661078702
92.48046875,0.0013828177972525235
92.578125,0.0011989004514729531
92.67578125,0.00047185327099537577
92.7734375,0.0005015568966701385
92.87109375,0.0005611487844949137
92.96875,0.0011818448977936784
93.06640625,0.000525225264768111
93.1640625,0.0017741998470727606
93.26171875,0.0007994025120904589
93.359375,0.0008693311403118206
93.45703125,0.000803216813741528
93.5546875,0.0008875472177310513
93.65234375,0.0011639376729883119
93.75,0.0010343715752578948
93.84765625,0.0003569740685832059
93.9453125,0.0010775141643547688
94.04296875,0.0014532133144458156
94.140625,0.00022613360177252927
94.23828125,0.0006465829289339364
94.3359375,0.0007878259408220985
94.43359375,0.0004159731476198465
94.53125,0.0011918069307721836
94.62890625,0.00029659812651594287
94.7265625,0.0005398579138061917
94.82421875,0.0005225445636401393
94.921875,0.0006290547274750174
95.01953125,0.0004237341734990712
95.1171875,0.0008477501172325012
95.21484375,0.0003722707103403137
95.3125,0.0007071773574126431
95.41015625,0.0015583627606524373
95.5078125,0.0010995470251360104
95.60546875,0.000578679486033943
95.703125,0.0009229717062394174
95.80078125,0.0003203158038596118
95.8984375,0.0011987058173796134
95.99609375,0.0011372321936506818
96.09375,5.305514043830568e-05
96.19140625,0.001359942994860995
96.2890625,0.0007155831074658132
96.38671875,0.0017862567881193813
96.484375,0.0011357549496438695
96.58203125,0.0016016470135273887
96.6796875,0.0008341681662452269
96.77734375,0.0006575850051631579
96.875,0.0005228576562016275
96.97265625,0.000819113696917973
97.0703125,0.0018694649766520012
97.16796875,0.0008687400995398807
97.265625,0.0009245015360501406
97.36328125,0.0004812110609617403
97.4609375,0.0005808061960788814
97.55859375,0.001122673494904071
97.65625,0.0014445147145497658
97.75390625,0.0008535229646465342
97.8515625,0.00041010374126256596
97.94921875,0.0007671506647003057
98.046875,0.00046805789984508676
98.14453125,0.001083273061379768
98.2421875,2.508777790296432e-05
98.33984375,0.0003771034536497645
98.4375,0.0007385067846612035
98.53515625,0.0005138474062716833
98.6328125,0.0010746231991004538
98.73046875,0.001454644952418765
98.828125,0.0012108487937169178
98.92578125,0.0003284837721465035
99.0234375,0.0013522275994652686
99.12109375,0.0014991806676223256
99.21875,0.0007659344666670886
99.31640625,0.0008860802765746242
99.4140625,0.00031403864064798035
99.51171875,0.0006494239882506365
99.609375,0.0009311346575609363
99.70703125,0.0016534438660583501
99.8046875,0.0009101957285072278
99.90234375,0.000566398028525291
100.0,4.81738904642368e-05
100.09765625,0.0007129731868107248
100.1953125,0.00035191663709328565
100.29296875,0.0004157603134614708
100.390625,0.0005479328442398252
100.48828125,0.0005845501923316773
100.5859375,0.0013020912295892866
100.68359375,0.0006266595798864304
100.78125,0.00044419275464654484
100.87890625,0.00037637791961859173
100.9765625,0.000200057488409622
101.07421875,0.0011077546851065644
101.171875,0.0011612859290086798
101.26953125,0.0011916006362619935
101.3671875,0.0008866382536394312
101.46484375,0.0014479372761430319
101.5625,0.00041167592384655705
101.66015625,0.0008792100397750644
101.7578125,0.0007687790448889257
101.85546875,0.0003209708393271975
101.953125,0.0005828558887227127
102.05078125,0.001479790638964939
102.1484375,0.001405418598008561
102.24609375,0.0016538244417489045
102.34375,0.000753371517868375
102.44140625,0.00028460896262269493
102.5390625,0.0005139173929415164
102.63671875,0.00034794472430536914
102.734375,0.0005099801464373664
102.83203125,0.0001703074710358454
102.9296875,0.0010001056962838603
103.02734375,0.0005749069310777603
103.125,0.00045730216987243104
103.22265625,0.0006160082069406183
103.3203125,0.00031726988524870487
103.41796875,0.000975219924632649
103.515625,0.0011075020197937942
103.61328125,0.0015505312955425559
103.7109375,0.00044127726358727474
103.80859375,0.0002958128500918641
103.90625,0.0016095589008025624
104.00390625,0.0009499050779948004
104.1015625,0.0007148614038039978
104.19921875,0.000828242068385168
104.296875,0.00023637614595178023
104.39453125,0.00045186543456411464
104.4921875,0.000757650564990039
104.58984375,0.0008858626990978938
104.6875,0.00054992136362755
104.78515625,0.0011546460304757752
104.8828125,0.0013853456555279788
104.98046875,0.0007094491461504754
105.078125,0.0005631730775808464
105.17578125,0.0002463339112596322
105.2734375,0.00033698021254507536
105.37109375,0.0002351041129990618
105.46875,0.0002470135292428602
105.56640625,0.0008014645832023099
105.6640625,0.00030405060492390257
105.76171875,0.0003761036080573751
105.859375,0.00022459180461276924
105.95703125,0.001056830130722107
106.0546875,0.0003413319406944964
106.15234375,0.0007936394282883118
106.25,0.00013631667408961249
106.34765625,0.0011147744668656894
106.4453125,0.0004731175966164187
106.54296875,0.0006318384666500038
106.640625,0.0007729095302393253
106.73828125,0.00039129323430537417
106.8359375,0.0008881761439956028
106.93359375,0.0010791352012671346
107.03125,0.0005404581083289574
107.12890625,0.0005960396537128176
107.2265625,0.0008157790018826369
107.32421875,0.0005053240782878662
107.421875,0.0006024959370599971
107.51953125,0.0007444043480506735
107.6171875,0.000687895219510936
107.71484375,0.0010861592181687187
107.8125,0.0005193710226425953
107.91015625,0.0001351898177942448
108.0078125,0.0006197677044916024
108.10546875,0.0007095372481105062
108.203125,0.0007774222781010555
108.30078125,0.0007770120209469948
108.3984375,0.0013287210756209125
108.49609375,0.0004382736463400272
108.59375,0.0003348904451371522
108.69140625,0.000603673766697759
108.7890625,0.0004228681009986991
108.88671875,0.0005959456994919802
108.984375,0.0014008691001552507
109.08203125,0.0013586704466800384
109.1796875,0.00016824181835445055
109.27734375,0.000295711438852906
109.375,0.0007833599694976197
109.47265625,0.0013419182773921664
109.5703125,0.0009846744337969884
109.66796875,0.0003137422551361641
109.765625,0.0002646792601267933
109.86328125,0.000970900704768782
109.9609375,0.0017922249078236474
110.05859375,0.0008503018640363434
110.15625,0.00044574980973846265
110.25390625,0.0009040043307363721
110.3515625,0.001103378476462322
110.44921875,0.00031284067174021943
110.546875,0.0003438143826020194
110.64453125,0.0008546051695993
110.7421875,0.0017170436620218739
110.83984375,0.001312737818574
110.9375,0.00066918875627598
111.03515625,0.0004734397479035251
111.1328125,0.0005188446140575582
111.23046875,0.0012012674814656538
111.328125,0.0010217944731865777
111.42578125,0.0003997814292683072
111.5234375,0.0009940753181197025
111.62109375,0.00017561554678391454
111.71875,0.0004793040324284586
111.81640625,0.0009880621739646823
111.9140625,0.0008448359340124138
112.01171875,0.0011651913614925688
112.109375,0.0005721826895054435
112.20703125,0.0010580343402396954
112.3046875,0.0007938194611951191
112.40234375,0.0006725224737455729
112.5,0.0003878629590653564
112.59765625,0.0006902988400190736
112.6953125,0.0009322373052262009
112.79296875,0.0004164476572996139
112.890625,0.0008209335162497498
112.98828125,0.0009732670089530797
113.0859375,0.0004468822513260991
113.18359375,0.0008739425963680395
113.28125,0.0007402155779065297
113.37890625,0.0005113438372477239
113.4765625,0.0007577404884318433
113.57421875,0.00016291249556980045
113.671875,0.00022293599021395942
113.76953125,0.0006917641236732503
113.8671875,0.0003543280653748105
113.96484375,0.0010048166448401754
114.0625,0.0005203327370455448
114.16015625,0.0015828759657868453
114.2578125,0.001274365665891299
114.35546875,0.0016921880290512881
114.453125,0.0011462048636911501
114.55078125,0.0006995211017234931
114.6484375,0.0007879836330672607
114.74609375,0.0004187808419887143
114.84375,0.0002009868817840262
114.94140625,0.0007262312603515801
115.0390625,0.0001823167938397708
115.13671875,0.00041125259408076687
115.234375,0.00027519672263023024
115.33203125,0.0007695119740129384
115.4296875,0.0004934953507489149
115.52734375,0.0006955901765755057
115.625,0.0008885621975882078
115.72265625,0.0006212483145872688
115.8203125,0.0004347458922446277
115.91796875,0.0009864656253979335
116.015625,0.0004852148707755048
116.11328125,0.0007885191541782895
116.2109375,7.486743207809825e-05
116.30859375,0.0010268136138551034
116.40625,0.001624700380838767
116.50390625,0.0011845989271129474
116.6015625,0.0005175910042243246
116.69921875,0.00014278840370503902
116.796875,0.0002036848848581786
116.89453125,0.0013042598787232978
116.9921875,0.0012920321764360871
117.08984375,0.0009892584517188724
117.1875,0.0009045913472150752
117.28515625,0.0017350716016123224
117.3828125,0.0005503235094311449
117.48046875,0.0010340276741101918
117.578125,0.0005264579649312601
117.67578125,0.0004899706032802541
117.7734375,0.0008090542160159566
117.87109375,0.00018846215951448864
117.96875,0.0006741493723685455
118.06640625,0.00048138847393916273
118.1640625,0.0006749338230323735
118.26171875,0.00042297240532260336
118.359375,0.0007310530992473671
118.45703125,0.0014417150666493719
118.5546875,0.0009518478216664731
118.65234375,0.0012151908395065811
118.75,0.00022000710882851077
118.84765625,0.00028723946787299046
118.9453125,0.000458770389295742
119.04296875,0.0012359711315073063
119.140625,0.0002650543985397532
119.23828125,0.0010394894883088818
119.3359375,0.002172618276307624
119.43359375,0.0008243046211909426
119.53125,0.0009020111776818553
119.62890625,0.0007732463186947037
119.7265625,0.00028251052873644685
119.82421875,0.00033050151417504886
119.921875,0.0008109450049590957
120.01953125,0.0006154992778746128
120.1171875,0.0004251627849568488
120.21484375,0.0004668432539854532
120.3125,0.0004063159783559503
120.41015625,0.00042335900615744635
120.5078125,0.0003286108520955956
120.60546875,0.0005174800937850977
120.703125,0.0008190858783798607
120.80078125,0.0004320363707669781
120.8984375,0.0011416793394945534
120.99609375,0.0002503293812051929
121.09375,0.00030875549119756626
121.19140625,0.0001487819219854092
121.2890625,0.0005561105637027557
121.38671875,0.0007434022870881359
121.484375,0.00041334159868152326
121.58203125,0.00026474318389048575
121.6796875,0.0008194550085958425
121.77734375,0.0004982414996958009
121.875,0.0006659692624966954
121.97265625,0.0004562453745463567
122.0703125,0.0005996284467269723
122.16796875,0.0005111053981931964
122.265625,0.00029957112295867026
122.36328125,0.0003273151460419779
122.4609375,0.0005874482188631375
122.55859375,0.0012654941971837594
122.65625,0.0006182309920499236
122.75390625,0.001087647864843529
122.8515625,0.0010707158624547438
122.94921875,0.0008595734947072158
123.046875,0.00028609060588779146
123.14453125,0.0008601206178707343
123.2421875,0.00022010880017668012
123.33984375,0.0006920173274046876
123.4375,0.00035189555716072887
123.53515625,0.00011763689786683172
123.6328125,0.0003372490844910895
123.73046875,0.0002919883275874413
123.828125,0.000624612461787843
123.92578125,0.0007865826132673275
124.0234375,0.001196368999930516
124.12109375,0.0005570137917988602
124.21875,0.00029543376200417954
124.31640625,0.0009288642747924906
124.4140625,0.0010103620899846746
124.51171875,0.0006371905394149825
124.609375,0.001033754281076274
124.70703125,0.0010078788650910511
124.8046875,0.0004114697720032457
124.90234375,0.00023640890236852836
125.0,0.0011532591279213857
125.09765625,0.0007101069396222658
125.1953125,0.0008797448133809852
125.29296875,0.00035871039751117387
125.390625,0.0010358624348461183
125.48828125,0.0009398284213342714
125.5859375,0.00059744298826782
125.68359375,0.0005884041498681534
125.78125,0.0003637195758138345
125.87890625,0.00042615104204755076
125.9765625,0.0006662421944191334
126.07421875,0.00042718318966525164
126.171875,0.0008027427086018243
126.26953125,0.0002539383243739168
126.3671875,0.00017402725518442632
126.46484375,0.0005648096757905728
126.5625,0.0005908969994676716
126.66015625,0.00018973147486191794
126.7578125,0.00029614963198872893
126.85546875,0.0004963165073319146
126.953125,0.0006633117564039601
127.05078125,0.0005686883793328357
127.1484375,0.0002465951726931284
127.24609375,0.0003996213536208983
127.34375,0.0003790116168079369
127.44140625,0.0004379826369525391
127.5390625,0.0005091051454943868
127.63671875,0.0008411141970347925
127.734375,0.0009538694946060202
127.83203125,0.0007526550358336645
127.9296875,0.0002766333827176417
128.02734375,0.0005176350762957422
128.125,0.0010933077388991152
128.22265625,0.0005744002349735741
128.3203125,0.000433354877077757
128.41796875,0.0011539454472926473
128.515625,0.0005411231108740332
128.61328125,0.0006246004900943616
128.7109375,0.000719004788874723
128.80859375,0.00026895246437151366
128.90625,0.0007926641476852193
129.00390625,0.0008684799208459786
129.1015625,0.00041644092445982707
129.19921875,0.0004958109022827361
129.296875,0.0004718437918808721
129.39453125,0.0005040096862247056
129.4921875,0.00019428848600887852
129.58984375,0.0009273610029947177
129.6875,0.0004894969416968786
129.78515625,0.0008807705697937466
129.8828125,0.0005174524238333121
129.98046875,0.0004713493344833297
130.078125,0.0005220524898222193
130.17578125,0.00045450027583884383
130.2734375,0.000658122476472784
130.37109375,0.0010539002524521735
130.46875,0.0006014599760815853
130.56640625,0.0006692998318061183
130.6640625,0.00013458201704367944
130.76171875,0.00037140019944346524
130.859375,0.0011515996248328765
130.95703125,0.00018577388260824368
131.0546875,0.0011360423560016753
131.15234375,0.0006433064844270726
131.25,0.0006104202094465148
131.34765625,0.00017000036496485528
131.4453125,0.0003965515010310011
131.54296875,0.0007511151969604819
131.640625,0.0003361098821815771
131.73828125,0.00047064625191449476
131.8359375,0.00043645443952975604
131.93359375,0.0010666778614354723
132.03125,0.0006481195586509428
132.12890625,0.0005357730066307084
132.2265625,0.0005566043315208149
132.32421875,0.0006648464940135223
132.421875,0.00042587501157626906
132.51953125,0.00019399159494898986
132.6171875,0.0005704172856530657
132.71484375,0.0007119251313082026
132.8125,0.00039808233150545196
132.91015625,0.0006752018649083206
133.0078125,0.0005879824169141277
133.10546875,0.000573607489298812
133.203125,0.0005716649535482766
133.30078125,0.0008529644276494809
133.3984375,0.001174715584299223
133.49609375,0.0009623124305501986
133.59375,0.0007047607518622882
133.69140625,0.0009450694649129603
133.7890625,0.00043722483614459513
133.88671875,0.0005600586404076388
133.984375,0.0008307035114871891
134.08203125,0.00027874801792966887
134.1796875,0.0010063795488116738
134.27734375,0.0006530898110992693
134.375,0.0004104719733349824
134.47265625,0.0003703231774755438
134.5703125,0.0002438528328243417
134.66796875,0.000811460751916408
134.765625,0.0006054865159531085
134.86328125,0.000331491168007863
134.9609375,0.0001327643152805993
135.05859375,0.0006046697584814055
135.15625,0.00024309993882168474
135.25390625,0.0002841572784329509
135.3515625,7.809891041765474e-05
135.44921875,0.0003617506219009672
135.546875,0.0003289781502163723
135.64453125,0.0010666777958271358
135.7421875,0.00034938574650161456
135.83984375,0.00047866487837984397
135.9375,0.00044527886844529583
136.03515625,0.0009909141752011943
136.1328125,0.00012665197154174878
136.23046875,0.0005721456921826554
136.328125,0.00041681270337536334
136.42578125,0.00047222486556471375
136.5234375,0.00022543282700862686
136.62109375,0.00029142644456866195
136.71875,0.00024150197175644138
136.81640625,0.0009798620611745008
136.9140625,0.00026953987613955306
137.01171875,0.0006868738726310171
137.109375,0.0007663110602674481
137.20703125,0.0004990058204477574
137.3046875,0.000644498500737562
137.40234375,0.000586555798915543
137.5,0.0004298869054898305
137.59765625,0.0003769715601473807
137.6953125,0.0002649583421934435
137.79296875,0.0002997054495423082
137.890625,0.00037433307907832713
137.98828125,0.0004130562930200895
138.0859375,0.00011488719814695098
138.18359375,0.0005396059711892854
138.28125,0.00046783355299884904
138.37890625,0.0007290627110329251
138.4765625,0.0003624966686448123
138.57421875,0.0003109064483091537
138.671875,0.00023795968311956348
138.76953125,0.00043728293484906203
138.8671875,0.00018534500963779974
138.96484375,0.0004461719054389295
139.0625,6.989216526512944e-05
139.16015625,0.0001356918844066291
139.2578125,0.0002983738450326823
139.35546875,0.00023803496338965495
139.453125,0.0003682893321567921
139.55078125,0.00047101531792676226
139.6484375,0.00039018066776307173
139.74609375,0.00014846972430149988
139.84375,0.0007073912156058764
139.94140625,0.0006000612603118856
140.0390625,0.00036314689230176347
140.13671875,0.00019524217500496428
140.234375,0.00029021016124388316
140.33203125,0.0011037513790337235
140.4296875,0.0001996060083353558
140.52734375,0.0006425919560351386
140.625,0.0003966534752958236
140.72265625,0.00047523033067995704
140.8203125,0.000693836675660254
140.91796875,0.0008363467635762704
141.015625,0.0006568443986475434
141.11328125,0.001015342327153369
141.2109375,0.00039861640132955744
141.30859375,0.00014536923303025838
141.40625,0.0006027114331918173
141.50390625,0.0009047789443997223
141.6015625,0.0009754863176442464
141.69921875,0.0005136136691283269
141.796875,0.000534775820438786
141.89453125,0.0005662687878671257
141.9921875,0.0002069887109278146
142.08984375,0.000265723728561752
142.1875,0.00024696685589810407
142.28515625,0.0005307511793761182
142.3828125,0.00048337894740537184
142.48046875,0.0008255936649197667
142.578125,0.0005115381359743057
142.67578125,0.0005596079858319593
142.7734375,6.336897263829982e-05
142.87109375,0.0006438958236158901
142.96875,0.00019788287734495182
143.06640625,0.00020444481933776595
143.1640625,0.0006746406897680529
143.26171875,0.0006243258814706896
143.359375,9.435982875299827e-05
143.45703125,0.0006561719852041204
143.5546875,0.0007863011500570087
143.65234375,0.0006319627963598489
143.75,0.00017467614830486965
143.84765625,0.0007093382294337201
143.9453125,0.0007202897860798313
144.04296875,0.0008369857981400776
144.140625,0.0011292777300523139
144.23828125,0.0003132714015770083
144.3359375,0.0007032108242199585
144.43359375,0.00010471475440457493
144.53125,0.0004542970750724987
144.62890625,0.00014465844941854056
144.7265625,0.00010794134544057941
144.82421875,0.0005265264400693474
144.921875,0.00035708484657509336
145.01953125,0.0009718655947748567
145.1171875,0.0012225385665344188
145.21484375,0.00033446443205490295
145.3125,0.0011215524884655784
145.41015625,0.0010454580847356133
145.5078125,0.0014575943822698787
145.60546875,0.000586287470339941
145.703125,0.0002566326562511179
145.80078125,0.00028949196782772824
145.8984375,0.000401168356863424
145.99609375,6.811636365317774e-05
146.09375,0.001081759534249444
146.19140625,0.0002757915521524515
146.2890625,0.000574030780888001
146.38671875,0.00015081702671857275
146.484375,0.0005782119861536315
146.58203125,0.0002950456043746036
146.6796875,0.0006600535215834772
146.77734375,0.0004878594866249313
146.875,0.00024828339900172133
146.97265625,0.0007777664913377099
147.0703125,0.0007905723702798247
147.16796875,0.0006023356537718924
147.265625,9.16460748844473e-05
147.36328125,0.0004750753577934965
147.4609375,0.000840649706986489
147.55859375,0.0007777441830872707
147.65625,0.0003805231609639399
147.75390625,0.00037166372635185046
147.8515625,0.0006790168259380742
147.94921875,0.00040442584206313366
148.046875,0.0001667389944019732
148.14453125,8.659288821420973e-05
148.2421875,0.00015702419145495475
148.33984375,0.0006556605838114851
148.4375,0.0007122720711982377
148.53515625,0.00033721582717774446
148.6328125,0.00032831121235948565
148.73046875,0.000289334653780335
148.828125,0.000594524729180338
148.92578125,0.0007005384985124109
149.0234375,0.0006919836346897157
149.12109375,0.0002103456783654914
149.21875,0.0009082188936496993
149.31640625,0.0007062518568012733
149.4140625,0.00037253356673804005
149.51171875,0.00012502468880463234
149.609375,0.0003765003141396192
149.70703125,0.0005866474169508539
149.8046875,0.00034272899995537766
149.90234375,0.0002473390217900849
150.0,0.0007389683290774277
150.09765625,0.00048385976963739646
150.1953125,2.7613485480985187e-05
150.29296875,0.00035701073904650157
150.390625,0.00039183337213350225
150.48828125,0.0005383705917829083
150.5859375,0.0007959548317040392
150.68359375,0.0006082622039476733
150.78125,0.0004889438440786798
150.87890625,0.001093701721742756
150.9765625,0.001198609298890911
151.07421875,0.00021957717244892088
151.171875,0.0005203385777924313
151.26953125,0.000599986129856094
151.3671875,0.0007926191835095966
151.46484375,0.0005776904601974938
151.5625,0.0009118727862428941
151.66015625,0.0007706642967340403
151.7578125,0.0002762069404640903
151.85546875,0.0008941479643634325
151.953125,0.00023977728679253226
152.05078125,0.0004395516732547823
152.1484375,0.00039117575874926
152.24609375,0.0001270750656378154
152.34375,0.0011875107610074664
152.44140625,0.0002680144675151044
152.5390625,0.0004028724982373635
152.63671875,0.0003619471548784527
152.734375,0.0007504495894171338
152.83203125,0.00046333373408214204
152.9296875,0.00016334577486082295
153.02734375,0.0005059059831321284
153.125,0.0004147131459304685
153.22265625,0.00020477635356865717
153.3203125,0.0002209504111911944
153.41796875,0.0006873852511479423
153.515625,0.00037000292190934745
153.61328125,0.0005799782520414013
153.7109375,0.0004047439139948068
153.80859375,0.0004622993248075884
153.90625,0.0004808304507369389
154.00390625,0.0006881667375227112
154.1015625,0.0003974771151637416
154.19921875,0.000281106710327241
154.296875,0.0008507963618710631
154.39453125,0.0004382969748173131
154.4921875,0.0004823480731438767
154.58984375,0.0007324374064367374
154.6875,0.0005184336368849137
154.78515625,0.00041549746612025326
154.8828125,0.0007039991166357052
154.98046875,0.00028211350870413596
155.078125,0.00032555188044751317
155.17578125,0.0009456491463300716
155.2734375,0.0001387814528627137
155.37109375,0.00041407219316313054
155.46875,0.00030427807506167904
155.56640625,0.0006858875642759558
155.6640625,0.0005782242303356217
155.76171875,0.000433381636815673
155.859375,0.00021519010265933725
155.95703125,0.000116033814695665
156.0546875,0.0008442319436518369
156.15234375,0.0004677055633128659
156.25,0.0005498265244644221
156.34765625,0.000465156635527566
156.4453125,0.00026473762262356596
156.54296875,0.0005040950731800784
156.640625,0.0003404707419278974
156.73828125,0.00030899885468509494
156.8359375,0.0005481527171325547
156.93359375,0.00044005968605956747
157.03125,0.0010402685763642838
157.12890625,0.0005333595975987379
157.2265625,0.0004278210202296842
157.32421875,0.00035026611549775227
157.421875,0.001143504265154207
157.51953125,0.0005710197815047221
157.6171875,0.00031467081521302276
157.71484375,0.00024484248214283396
157.8125,8.282928321966899e-05
157.91015625,0.0006869160595653776
158.0078125,0.00031285025943308774
158.10546875,0.0004099375627578711
158.203125,0.0008920824638687307
158.30078125,0.000931828042723112
158.3984375,0.00025593780474353307
158.49609375,0.0006203998608030922
158.59375,0.0005112648331699149
158.69140625,0.0005759778632781729
158.7890625,0.00045979802680162513
158.88671875,0.00018744467066958347
158.984375,0.00039651564002113495
159.08203125,0.00022120607662019676
159.1796875,0.0005270561583216031
159.27734375,0.0006588241835692274
159.375,0.0010484409767264767
159.47265625,0.0008442980881347876
159.5703125,0.00012536841974622305
159.66796875,0.00029911121025767983
159.765625,0.0003277221168828529
159.86328125,0.0004121052622596932
159.9609375,0.0003255041974591132
160.05859375,4.8840091989928465e-05
160.15625,0.000650043164743056
160.25390625,0.00018796465870220185
160.3515625,0.00039038604162238864
160.44921875,3.148444367688006e-05
160.546875,0.00043420216570131624
160.64453125,0.00031536746592720723
160.7421875,0.00022493979317493655
160.83984375,0.00032745914139854706
160.9375,0.0004646131231682558
161.03515625,0.00044030564603323667
161.1328125,0.0006206958018667024
161.23046875,5.629457261209446e-05
161.328125,0.0003431389495352731
161.42578125,0.0003858697586421059
161.5234375,0.0001234489300219894
161.62109375,0.0009108532273630079
161.71875,0.00033422053974373916
161.81640625,0.00046955500636416855
161.9140625,0.0002874647585557375
162.01171875,0.0005752139419229657
162.109375,0.0003243546744635883
162.20703125,0.0008479101890091494
162.3046875,0.000156314666605211
162.40234375,0.0002480349903106002
162.5,0.0006687254164928618
162.59765625,0.00036357670437776705
162.6953125,0.00030706778720905213
162.79296875,0.0005366491729943745
162.890625,7.049681907615107e-05
162.98828125,0.0004248893642313635
163.0859375,0.0002165492232907237
163.18359375,0.000346706610287075
163.28125,0.0003494818249033765
163.37890625,0.0005156026785475002
163.4765625,0.00022160121836502353
163.57421875,0.0007196720069609507
163.671875,0.0009129451408960835
163.76953125,0.0008747252083804976
163.8671875,0.0005453347479252744
163.96484375,0.0006695062078044765
164.0625,0.00034894444226876513
164.16015625,0.00040162358098622374
164.2578125,3.282700202851002e-05
164.35546875,0.0007564357612444257
164.453125,0.0005317830153852193
164.55078125,0.00027616541573260756
164.6484375,0.0006826925729404689
164.74609375,0.00047704841255177225
164.84375,0.0002557948031312218
164.94140625,0.00039827858996226465
165.0390625,0.0002284815791885914
165.13671875,0.0004580733699686696
165.234375,0.00059919272410774
165.33203125,0.0005785047873520623
165.4296875,0.0003428329750331009
165.52734375,0.0002975217216733886
165.625,0.00012962327651174578
165.72265625,0.0001708830125487854
165.8203125,0.0004281188803252254
165.91796875,0.0005985404089667375
166.015625,0.00015184792192430197
166.11328125,0.00010446310767255976
166.2109375,0.0005812163436076744
166.30859375,0.00021323744304895697
166.40625,0.0005316111103859466
166.50390625,0.0005904587577695486
166.6015625,0.0003417258189910835
166.69921875,0.0003479954301035384
166.796875,0.0007570499315505013
166.89453125,0.00047678268566134343
166.9921875,0.0003039137760316458
167.08984375,0.0003932525596527874
167.1875,0.0005129385811753726
167.28515625,0.0004505153666788026
167.3828125,0.0003586689235497342
167.48046875,0.0005855617076729744
167.578125,0.0006661297140545639
167.67578125,0.000386794657942729
167.7734375,0.0004064031367670329
167.87109375,0.00031995045356768916
167.96875,0.00030776446282608006
168.06640625,0.00011891194201781752
168.1640625,0.0004260688744564458
168.26171875,0.0007159695832193971
168.359375,0.00028057613874910356
168.45703125,0.00016040318147288033
168.5546875,0.0002533212514206446
168.65234375,0.0005382741088977784
168.75,0.0010647862596517964
168.84765625,0.00020488766103299901
168.9453125,0.0007657723902597667
169.04296875,0.00022465578339380245
169.140625,0.0007318150865124902
169.23828125,0.00038244441318282645
169.3359375,0.000340782348963215
169.43359375,0.00027962899040096493
169.53125,0.0002459793772424665
169.62890625,0.0007279396257083372
169.7265625,0.0003903507951832793
169.82421875,0.0005328349075751549
169.921875,0.00023415647869476304
170.01953125,0.00031909095109053723
170.1171875,0.00025467024096386244
170.21484375,0.00044612139820100175
170.3125,0.0004620669055249215
170.41015625,0.0005508949454306935
170.5078125,0.0004600468972567207
170.60546875,5.656697716358792e-05
170.703125,0.00010713773019006561
170.80078125,7.255350980219773e-05
170.8984375,9.930116251214295e-05
170.99609375,0.00036535231072349077
171.09375,0.00016308357378378403
171.19140625,0.0003238088975350205
171.2890625,0.0001364106244870701
171.38671875,0.00047640342143646605
171.484375,0.00042075310424861213
171.58203125,0.0002858758860640063
171.6796875,0.00020551282637833944
171.77734375,0.00047956110613564887
171.875,0.00048202273824552697
171.97265625,0.0005432841922648717
172.0703125,0.0002415042266186998
172.16796875,0.00040840039445379684
172.265625,2.833230066158473e-05
172.36328125,0.0008636824616705341
172.4609375,0.00045054381593497174
172.55859375,0.0004692495968123621
172.65625,2.7228144588418313e-05
172.75390625,0.0005082103429930638
172.8515625,0.000606840087854056
172.94921875,0.00016106509534974335
173.046875,0.00031467040359474526
173.14453125,0.0005651067199467642
173.2421875,0.00014413653315343896
173.33984375,0.00027819060250208467
173.4375,0.00030056923984193693
173.53515625,0.0006560225649832377
173.6328125,0.0005212278121633101
173.73046875,0.0001886738306399081
173.828125,0.00021942136917779047
173.92578125,0.00031849445815620466
174.0234375,9.714836209317765e-05
174.12109375,0.000392776872687524
174.21875,0.00023927050977738773
174.31640625,0.00041880557466227833
174.4140625,0.00032716595839544794
174.51171875,0.0005039719602207818
174.609375,0.0005053465141365823
174.70703125,0.0007530843025402623
174.8046875,0.0004254590950935446
174.90234375,0.0005457793009286156
175.0,0.001049294639624509
175.09765625,0.00041360453225783284
175.1953125,0.0004184463166127914
175.29296875,0.00024208346630797073
175.390625,0.0003829043180976215
175.48828125,0.00024483308361176217
175.5859375,0.00029613831029425735
175.68359375,0.00034720826573443326
175.78125,0.000532696373718667
175.87890625,0.00030529552636223654
175.9765625,0.0003800681337343487
176.07421875,0.0001821071381521297
176.171875,0.0005616127516201212
176.26953125,0.0001419271545794029
176.3671875,0.000366251297586844
176.46484375,0.0005522090209390917
176.5625,0.00010182738853761588
176.66015625,0.00040850632750132006
176.7578125,0.00018976064537145783
176.85546875,0.0002309829247368113
176.953125,7.2057162674014285e-06
177.05078125,4.9906629129092524e-05
177.1484375,0.0002469090043286407
177.24609375,0.00014070303341190996
177.34375,0.00019888000140329124
177.44140625,5.498266038520149e-05
177.5390625,0.0007603402416572946
177.63671875,0.0005045592188312233
177.734375,0.0007051908565974293
177.83203125,0.00039589559047910957
177.9296875,0.0002816771277022428
178.02734375,0.0004427888354691697
178.125,0.00021366150014857896
178.22265625,0.0003252624160294212
178.3203125,0.00022442864475772343
178.41796875,0.00027300896157256673
178.515625,0.00037151381325746687
178.61328125,0.001105903179029022
178.7109375,0.00020032531942377007
178.80859375,0.00010029372539146998
178.90625,0.00047983634290505264
179.00390625,0.0007569848510691961
179.1015625,0.000417294937964096
179.19921875,0.00019123439881302992
179.296875,0.0002982939471159695
179.39453125,0.0003289669129232001
179.4921875,0.00027066193867218724
179.58984375,0.0003564587545943746
179.6875,0.0003019915999378509
179.78515625,0.0004188808501601654
179.8828125,0.00034413262082950063
179.98046875,0.0006191185659968544
180.078125,0.00018453718914925444
180.17578125,0.000500795537287759
180.2734375,0.0005893758353995058
180.37109375,0.0006136538418167295
180.46875,0.0008760613434138889
180.56640625,0.0006877341472252864
180.6640625,0.0001293277195790984
180.76171875,0.00014654971212372842
180.859375,0.00025483024748405115
180.95703125,0.0002604321830114042
181.0546875,0.00044159261195942935
181.15234375,0.00022955575642709795
181.25,0.0004130459977089094
181.34765625,0.00029692964183867366
181.4453125,0.000492948987280233
181.54296875,0.0006905495680266208
181.640625,0.0004206538825381658
181.73828125,0.0001807953866350746
181.8359375,0.0002716802390240886
181.93359375,0.0006700686060076454
182.03125,0.0006593067312927646
182.12890625,0.000825804787601096
182.2265625,0.0005837890157321422
182.32421875,0.00027889584594346223
182.421875,0.0004538223207845702
182.51953125,0.0003959251640148235
182.6171875,0.0001994660891201199
182.71484375,0.0004701216383276844
182.8125,0.00023849111687925594
182.91015625,0.0006139765137256112
183.0078125,0.00064049080252614
183.10546875,0.0002725847186373213
183.203125,0.0006109302754141849
183.30078125,0.0002566778334965014
183.3984375,0.0005867640769737198
183.49609375,0.0001603221093795387
183.59375,0.00037871961423648504
183.69140625,0.0005194518437383621
183.7890625,0.0006676794974857725
183.88671875,0.0005088631297809394
183.984375,0.0006713157514786135
184.08203125,0.00030082496186301544
184.1796875,0.0004839015454596466
184.27734375,0.0004437944350336378
184.375,0.0006889370793684279
184.47265625,0.0001605890165613648
184.5703125,0.000357097164375879
184.66796875,0.0001470529929841005
184.765625,4.8211689789062386e-05
184.86328125,0.0009265948042130189
184.9609375,0.0003357243111884726
185.05859375,9.948186797735791e-05
185.15625,0.0005209336670617828
185.25390625,0.00025464581326745887
185.3515625,0.0001247106432939837
185.44921875,0.0004307605417194672
185.546875,0.00021142982813507897
185.64453125,7.387725840321564e-05
185.7421875,0.0006487805667679918
185.83984375,0.00023289479796213868
185.9375,0.0002992660645985686
186.03515625,0.00012357678584631085
186.1328125,0.00028877735814007146
186.23046875,0.00022059781523437358
186.328125,3.7124528660797145e-05
186.42578125,0.00035446864806497704
186.5234375,0.0002560249274302388
186.62109375,0.0005993441379352712
186.71875,0.0002372396289243985
186.81640625,0.0004503326056000379
186.9140625,0.0002591253143919411
187.01171875,0.0002693309205094475
187.109375,0.0007295595593697539
187.20703125,0.0007409078423272819
187.3046875,0.00037744431593385536
187.40234375,0.0002541385340079588
187.5,0.00012429827533171276
187.59765625,0.0002499226167603811
187.6953125,0.00044023738145230963
187.79296875,0.00012428803490573305
187.890625,0.00038028390158384266
187.98828125,0.00041443703835568373
188.0859375,0.00010602728970251833
188.18359375,0.0003185665350999275
188.28125,0.00019201562189054516
188.37890625,0.00033154433958695797
188.4765625,0.000383440815256694
188.57421875,0.0004926841998939279
188.671875,0.0003124742322104301
188.76953125,0.00010485925257121335
188.8671875,0.00011825431540947646
188.96484375,8.990410817326765e-05
189.0625,0.00022997572180806877
189.16015625,0.0006479125671338139
189.2578125,0.0003510192379430489
189.35546875,0.0001698374656111405
189.453125,0.0005403551616409904
189.55078125,0.00045149685073362397
189.6484375,0.00038318752725069113
189.74609375,0.0002947037679153279
189.84375,0.00015055906025072624
189.94140625,0.00031399132271779325
190.0390625,1.97179295385071e-05
190.13671875,0.00011170998255253628
190.234375,0.00017338454025992586
190.33203125,0.0002648906535554528
190.4296875,0.00032475751880882355
190.52734375,0.0004494210870078782
190.625,0.0001998654704166943
190.72265625,0.00025679653325188
190.8203125,0.00046313280760849575
190.91796875,0.0006072127808575298
191.015625,0.0004205626910737325
191.11328125,0.0006108534927714886
191.2109375,0.00015127898414220563
191.30859375,0.00014113160496793462
191.40625,0.00017631961596235022
191.50390625,0.0005131051350101072
191.6015625,0.00035756562271111033
191.69921875,0.000816250292315893
191.796875,0.0003834531005179455
191.89453125,0.00037363605203241695
191.9921875,0.00033377092505277467
192.08984375,7.182275005349499e-05
192.1875,0.0002502766046282153
192.28515625,0.0002281831172913577
192.3828125,0.0002898813623412958
192.48046875,0.0004077052840794023
192.578125,0.00041457920787085593
192.67578125,0.0005849294404115586
192.7734375,0.0005155694078139773
192.87109375,0.00047835411672602843
192.96875,0.0005496335739194469
193.06640625,0.0004167846624205467
193.1640625,0.00011562715821568741
193.26171875,0.00023592584287973232
193.359375,0.0004198155653998797
193.45703125,0.0004006037126739805
193.5546875,0.00032384163654756895
193.65234375,0.00032662853058631797
193.75,0.000278638786330891
193.84765625,0.00048059106710532487
193.9453125,0.00018045330439864555
194.04296875,9.1416365408249e-05
194.140625,0.000366040993914068
194.23828125,8.515382820172807e-05
194.3359375,0.00022691832531456063
194.43359375,0.00011657795473264241
194.53125,0.0004906830137868227
194.62890625,0.0003873559952621335
194.7265625,0.0004613385242757226
194.82421875,0.0005344471591534207
194.921875,0.0006071030971686582
195.01953125,0.00045555455299396594
195.1171875,0.0004545915849254853
195.21484375,0.00015754716148541872
195.3125,0.0003474298461145876
195.41015625,0.0002149070002500561
195.5078125,0.00025809799732120874
195.60546875,0.0002629119743672423
195.703125,0.0004379743845079591
195.80078125,0.0001292676330710658
195.8984375,0.0002744690812024837
195.99609375,0.00024166485414300884
196.09375,0.00017777059221318162
196.19140625,0.00018325860442040029
196.2890625,0.0002916440090738564
196.38671875,7.291375577868933e-05
196.484375,0.00022506855346915322
196.58203125,0.0006267053239051947
196.6796875,0.00030800156617194117
196.77734375,0.00038996021724767424
196.875,0.00013261727528762106
196.97265625,0.0001099418856154568
197.0703125,0.00045369820306434636
197.16796875,0.0006118947617371793
197.265625,0.0003914426206496423
197.36328125,0.0002290050826368145
197.4609375,6.397959791139413e-05
197.55859375,0.0008012040731530592
197.65625,0.0004643975063462623
197.75390625,0.0005392019900482069
197.8515625,0.00026829384180590885
197.94921875,0.00039958801552046787
198.046875,6.835587447189718e-05
198.14453125,0.0002785805314266318
198.2421875,0.00024898815477209055
198.33984375,0.0002851355029576155
198.4375,0.00034121505675181415
198.53515625,0.0002293274715441915
198.6328125,0.0003773147186015801
198.73046875,0.00029912051966261757
198.828125,0.0003766331215710292
198.92578125,0.0001246864718503619
199.0234375,0.0002868412336738098
199.12109375,0.00022703240753932938
199.21875,0.000221553238888135
199.31640625,0.00048020915769183983
199.4140625,0.0002710535903698696
199.51171875,0.0005238082226398832
199.609375,0.0003620131511436529
199.70703125,0.0001331105594375987
199.8046875,0.00032013201689270825
199.90234375,0.00022590067923739088
200.0,0.00016285480409157808
200.09765625,0.00015217119755509554
200.1953125,0.00024045618613643965
200.29296875,0.0005739503805371895
200.390625,0.0005188622307842649
200.48828125,0.000386416511690943
200.5859375,0.00038704402535075764
200.68359375,0.0003882437628619092
200.78125,0.0004594624348608848
200.87890625,0.00020168058345511198
200.9765625,0.00024205299926943833
201.07421875,0.0005649586158623603
201.171875,0.0005388493217087387
201.26953125,0.0002478805326182722
201.3671875,0.0001847275388280734
201.46484375,0.0001391667358441159
201.5625,0.0001025124355444982
201.66015625,0.00031480287649932515
201.7578125,0.0005736966211986829
201.85546875,0.00037393623488031936
201.953125,0.000200532853472992
202.05078125,0.0001267437291837661
202.1484375,0.00014279203280475976
202.24609375,0.000303640256598005
202.34375,7.544092816497201e-05
202.44140625,0.00038567943336404766
202.5390625,5.685746082400433e-05
202.63671875,0.0006715657998266696
202.734375,0.00038234758403709874
202.83203125,0.0004142912994343086
202.9296875,0.00028065788093690656
203.02734375,0.0003495441379728638
203.125,0.00034151977774659036
203.22265625,0.00023313461583657018
203.3203125,0.00028929735530174846
203.41796875,0.00030018575373377745
203.515625,0.00020501401434943226
203.61328125,0.00039738031266376805
203.7109375,0.0005872507848622288
203.80859375,0.0006055324661507779
203.90625,0.00034244865941042765
204.00390625,0.00022196523855879592
204.1015625,0.00018052857405949057
204.19921875,0.00015690396039751077
204.296875,0.00033472969129071545
204.39453125,0.0003912151168484206
204.4921875,0.0003563039364493391
204.58984375,5.6099596115761014e-05
204.6875,0.0003717696423106613
204.78515625,0.00032788207441122137
204.8828125,0.00042267909450059205
204.98046875,0.00040173670013743217
205.078125,0.00018130093723352401
205.17578125,0.00038100127360125684
205.2734375,0.0004912855660294907
205.37109375,0.00020459981069251005
205.46875,0.0001991302082888963
205.56640625,3.316041859285374e-05
205.6640625,0.00017509172890468538
205.76171875,0.0003116040738107998
205.859375,0.0001536803378753138
205.95703125,0.00022653851707963503
206.0546875,0.00047738025171357274
206.15234375,0.00021210883123158752
206.25,0.00011469631162902333
206.34765625,0.00034959592753727427
206.4453125,5.659490395503078e-05
206.54296875,0.00023207997274178493
206.640625,3.9099251730852505e-05
206.73828125,0.000538569487035848
206.8359375,0.0001118539490861117
206.93359375,0.0002598493075710099
207.03125,0.00028289260316611094
207.12890625,0.0005183352212498902
207.2265625,8.57251622765702e-05
207.32421875,0.00044625694607964856
207.421875,0.00016060541903465634
207.51953125,0.0005225398335596742
207.6171875,0.00011034342493977073
207.71484375,0.0002685843002131401
207.8125,0.00030794222590022486
207.91015625,0.00020072585768194916
208.0078125,0.00031306271639703915
208.10546875,0.0003840124449104384
208.203125,0.00025287944109031446
208.30078125,0.0002584509612579291
208.3984375,0.000393965034096194
208.49609375,7.013388548313e-05
208.59375,0.0004103968597112993
208.69140625,0.00022899284210296624
208.7890625,0.00043911004710535265
208.88671875,4.2503490084864695e-05
208.984375,0.00027630900640139105
209.08203125,9.045778752864645e-05
209.1796875,0.00010995903804306175
209.27734375,0.000376840545880108
209.375,7.542907878228923e-05
209.47265625,0.000242462734125315
209.5703125,0.0001249978069170902
209.66796875,0.00013287860087338532
209.765625,9.696125106407465e-05
209.86328125,0.00011347269267265387
209.9609375,0.0005279075718429595
210.05859375,0.00043340986685728273
210.15625,0.00012107220626374721
210.25390625,0.0003255119675103266
210.3515625,0.0002767224657487316
210.44921875,0.00030005109053365226
210.546875,0.0002471973343799464
210.64453125,0.0006511014804469539
210.7421875,0.00034031737183986177
210.83984375,0.00015937622998831897
210.9375,0.0005238651211385012
211.03515625,0.00021072676673541133
211.1328125,6.563647472005772e-05
211.23046875,0.00015538453502211272
211.328125,0.00022559995538443643
211.42578125,0.0001738791416863825
211.5234375,0.00042827663703772997
211.62109375,8.422605221234942e-05
211.71875,0.00022369018531139554
211.81640625,0.00028907184537945504
211.9140625,0.0002308686646273867
212.01171875,0.00022057752364086194
212.109375,0.0002754761827587709
212.20703125,8.546881140197213e-05
212.3046875,3.1843399509749515e-05
212.40234375,0.00031846439810454766
212.5,0.00022447796730966745
212.59765625,0.00030128323690952613
212.6953125,0.00020101187459690596
212.79296875,0.00024267469400983844
212.890625,0.0002471037110291958
212.98828125,0.00041146148752645173
213.0859375,0.00039898244829099567
213.18359375,0.00032492502617362533
213.28125,0.0003330900146758595
213.37890625,0.00036060696954289386
213.4765625,0.00012774843134571182
213.57421875,0.00019705057027653486
213.671875,0.0002373130506847427
213.76953125,0.0002505509388338057
213.8671875,0.00030876132187848985
213.96484375,0.00022610394868743217
214.0625,0.00023040088132549814
214.16015625,0.0002867848811037234
214.2578125,0.00021510492894274971
214.35546875,0.00011205874508183403
214.453125,0.0001868582427452541
214.55078125,0.0001406704938310225
214.6484375,0.00024890392618711824
214.74609375,0.00012070984219218265
214.84375,0.00037450474628271884
214.94140625,0.00016131864804021665
215.0390625,0.00018065329713243033
215.13671875,0.0002861496669217179
215.234375,0.00024554806282336896
215.33203125,0.00023737034977528077
215.4296875,0.00010145042648769408
215.52734375,5.0086588485366524e-05
215.625,0.00011324169389594047
215.72265625,0.0002307037801728395
215.8203125,0.0002931512388715195
215.91796875,0.00011556598200994047
216.015625,5.090152754166327e-05
216.11328125,0.0002446653627687363
216.2109375,0.00016926276493805227
216.30859375,0.00029058304135128125
216.40625,0.0002964191439996442
216.50390625,0.00033547148652064533
216.6015625,0.0003274046467992488
216.69921875,0.00018831549107660916
216.796875,7.704074524841887e-05
216.89453125,5.656216525775503e-05
216.9921875,0.00018720106698743598
217.08984375,0.00017116895712781678
217.1875,0.00016719025456726376
217.28515625,0.00020216113257523675
217.3828125,0.0002258959860806134
217.48046875,0.00026805623074879135
217.578125,0.00034546264760807025
217.67578125,5.50812011912338e-05
217.7734375,0.00017102934410772892
217.87109375,0.00025470828508478296
217.96875,0.00018997467951636872
218.06640625,6.683023892989435e-05
218.1640625,0.00013618322836302942
218.26171875,0.00013675424847198973
218.359375,0.00047969912670498975
218.45703125,0.00020380375166868057
218.5546875,0.0003417584859264117
218.65234375,3.4116320756504504e-05
218.75,8.025017866538045e-05
218.84765625,0.00017731380357986103
218.9453125,0.0002746049657229507
219.04296875,0.0002107674890569916
219.140625,0.0002500152035255494
219.23828125,0.000467585811968101
219.3359375,0.0003802364278737369
219.43359375,0.00038731547074053146
219.53125,0.00029024415245361814
219.62890625,6.792882380850575e-05
219.7265625,0.00032548042536694903
219.82421875,0.00010457824614789013
219.921875,0.00010069970340374417
220.01953125,0.00018792638312340704
220.1171875,5.532371510031436e-05
220.21484375,0.0002599481709605658
220.3125,0.00025394431166508744
220.41015625,0.00030831439943666724
220.5078125,0.00022945116523857744
220.60546875,0.00012431686301004165
220.703125,0.0002753109639886728
220.80078125,0.0002909731738266376
220.8984375,0.0001500574489335926
220.99609375,9.577859838831178e-05
221.09375,0.00016298901231655353
221.19140625,3.939723874707338e-05
221.2890625,5.098528232154993e-05
221.38671875,0.00017730162188039152
221.484375,7.32126340741877e-05
221.58203125,0.0001214560048951869
221.6796875,0.00020077934169859628
221.77734375,0.00017665361805418046
221.875,0.0004140883967302417
221.97265625,0.0003791479159370517
222.0703125,0.00019062417940838986
222.16796875,0.000420106366012318
222.265625,6.849264338175479e-06
222.36328125,9.786072623563093e-05
222.4609375,0.00021199486071155917
222.55859375,0.0001522657364550539
222.65625,0.000146924538884719
222.75390625,1.3476509904850429e-05
222.8515625,0.00010523139366155796
222.94921875,0.0003483204700268563
223.046875,0.00010148997784489044
223.14453125,0.00032051361734340667
223.2421875,0.00020304447035337207
223.33984375,4.129283401494993e-05
223.4375,0.0001911026123022364
223.53515625,9.83213690320098e-05
223.6328125,0.00031660522230558775
223.73046875,0.00017954524790243814
223.828125,0.0001223896914165636
223.92578125,7.074146517386295e-05
224.0234375,0.00010826505071644471
224.12109375,7.435074994439222e-05
224.21875,0.0002844525389202785
224.31640625,0.00026221742650935385
224.4140625,5.639014651556379e-05
224.51171875,0.00018700357441465228
224.609375,0.00017206036138545214
224.70703125,0.00013313591840016767
224.8046875,0.0002511901651700001
224.90234375,0.00020819108590170463
225.0,0.0001387244214930899
225.09765625,0.00013583825965913645
225.1953125,0.00010622021615657633
225.29296875,0.0003201071769619118
225.390625,0.00027868424381204013
225.48828125,0.00027663779582546877
225.5859375,0.0002130254955489782
225.68359375,0.0002826415751080468
225.78125,0.00017332728387677907
225.87890625,0.00024544815833831484
225.9765625,0.0003693310023604273
226.07421875,0.00023847744768043007
226.171875,0.000126304466512438
226.26953125,0.0001898221533413845
226.3671875,0.00027231331996148693
226.46484375,0.00024655616262295535
226.5625,0.00023173793021833423
226.66015625,0.0002196380390610472
226.7578125,0.0001672670352037025
226.85546875,0.00012476864573159592
226.953125,0.00017092342942824117
227.05078125,7.130438556777882e-05
227.1484375,0.00011961244266240099
227.24609375,6.0154263629163944e-05
227.34375,0.00011106652761076768
227.44140625,0.0002417845936104866
227.5390625,0.0002647903991926862
227.63671875,4.9190876072132165e-05
227.734375,7.610053216833415e-05
227.83203125,0.00010432569393297971
227.9296875,0.00019011796907108104
228.02734375,0.0003351784856318782
228.125,0.00032451456354070713
228.22265625,0.00028793916045072375
228.3203125,0.0002209685169545859
228.41796875,0.0002547386334912057
228.515625,0.00014936197267930156
228.61328125,0.00020102679830398117
228.7109375,0.0003398121880863518
228.80859375,0.0002494154731854747
228.90625,0.0003757013093886462
229.00390625,0.00014147278952200167
229.1015625,0.00029777041673218835
229.19921875,0.0003135159694002642
229.296875,0.00021770966701167645
229.39453125,0.0002814639560332518
229.4921875,7.59355122618362e-05
229.58984375,0.00013573878782526406
229.6875,0.00016528463182745434
229.78515625,0.00013995673467411514
229.8828125,0.00018920419042548823
229.98046875,0.00021501853021313618
230.078125,0.00016149812681049767
230.17578125,0.0002025655047858631
230.2734375,0.00012519351980897536
230.37109375,0.0002513467560328279
230.46875,5.674010553232682e-05
230.56640625,6.299474786156566e-05
230.6640625,9.84304345741476e-05
230.76171875,0.00025279796758108814
230.859375,0.0001279060479760903
230.95703125,7.722336101304391e-05
231.0546875,3.2817498636969254e-05
231.15234375,0.00024071554970289536
231.25,6.327150601633705e-05
231.34765625,0.00017084250686622866
231.4453125,0.0002293946980256843
231.54296875,0.0002996563833481111
231.640625,0.00024473271468569783
231.73828125,5.459318404898693e-05
231.8359375,0.00013707395236525784
231.93359375,0.00011194664375125952
232.03125,0.00015971837171153473
232.12890625,0.00012358629411725233
232.2265625,0.0002687395477643651
232.32421875,0.0002338446491395302
232.421875,0.00012825437662940473
232.51953125,0.00021038378262804535
232.6171875,8.445771753936727e-05
232.71484375,0.00011240873498377829
232.8125,0.00023520022347502069
232.91015625,0.00025876508661411003
233.0078125,8.684437223615405e-05
233.10546875,0.00016254189144687833
233.203125,0.00019252198171121804
233.30078125,0.0001348920364981153
233.3984375,8.14004404998072e-05
233.49609375,4.547238236930524e-06
233.59375,0.00027170920987088036
233.69140625,0.0002895256913399051
233.7890625,9.746670682679499e-05
233.88671875,8.960128230345364e-05
233.984375,0.00034328378948447367
234.08203125,5.2553216705451316e-05
234.1796875,0.00029677550373164363
234.27734375,0.00012912636102847588
234.375,0.0002868724900753974
234.47265625,0.0002326772249363671
234.5703125,0.00018589611386323425
234.66796875,0.00019298801257833687
234.765625,0.00028849802031134455
234.86328125,0.00010993160189260284
234.9609375,7.68520958067663e-05
235.05859375,8.098116170782607e-05
235.15625,0.00013614421516649662
235.25390625,0.0001827458579293463
235.3515625,0.0002786192231819646
235.44921875,0.00021882358523708865
235.546875,3.602246410248159e-05
235.64453125,0.00014055137410132985
235.7421875,9.391674880295999e-05
235.83984375,1.940595143871509e-05
235.9375,0.00011560671680311611
236.03515625,0.00010098650453174623
236.1328125,1.652096734623849e-05
236.23046875,5.067624033926159e-05
236.328125,7.627683230619156e-05
236.42578125,0.00010945762572816677
236.5234375,8.756441830082039e-05
236.62109375,0.00022820452273919234
236.71875,4.6478445397641665e-05
236.81640625,0.00015123136270670852
236.9140625,0.00022426290882779782
237.01171875,9.153492279354914e-05
237.109375,0.00012590908332866372
237.20703125,0.000160176695790108
237.3046875,7.262882614651373e-05
237.40234375,0.00021474280190251902
237.5,0.00012805330288529463
237.59765625,6.859719455606801e-05
237.6953125,0.00021454157267559475
237.79296875,8.847179776943379e-05
237.890625,7.038375128924695e-05
237.98828125,0.00021751846685319398
238.0859375,0.00011343241427646828
238.18359375,0.00014730031955238765
238.28125,3.2095671838392634e-05
238.37890625,0.000113197900338631
238.4765625,0.0002152043060100414
238.57421875,0.00020807560857241184
238.671875,0.00015665163335205223
238.76953125,0.0001938998836783672
238.8671875,3.622170145531106e-05
238.96484375,0.00012392609970134858
239.0625,0.00025180549358446157
239.16015625,9.521590220482261e-05
239.2578125,0.00016687752078457948
239.35546875,8.959854827958913e-05
239.453125,0.00023356472731650204
239.55078125,0.00015426652872735253
239.6484375,0.00026338048946220955
239.74609375,0.00012736406757520122
239.84375,1.628063205545517e-05
239.94140625,1.0652987883465504e-05
240.0390625,0.00019841521785193174
240.13671875,0.00018787666064952336
240.234375,0.00020816395427460593
240.33203125,0.00014599820161245974
240.4296875,5.8507929944942064e-05
240.52734375,0.0001254566170802191
240.625,7.904745214904819e-05
240.72265625,0.00011527261647965788
240.8203125,0.00012512489693380672
240.91796875,0.00032386573060746315
241.015625,0.0001804110638836851
241.11328125,0.00019275773825311838
241.2109375,0.00029396236653946825
241.30859375,0.00020555656172496827
241.40625,0.00017143153317547674
241.50390625,0.00014351717329268135
241.6015625,0.00020639569842802291
241.69921875,0.00010945696369473747
241.796875,3.0470835797211918e-05
241.89453125,0.0002730791162278067
241.9921875,0.00023591246250152136
242.08984375,9.753065604140601e-05
242.1875,0.00024696090283552147
242.28515625,5.1794006724007716e-05
242.3828125,0.000186815985553464
242.48046875,7.63141316167293e-05
242.578125,0.00019185765055248545
242.67578125,0.00024102952085034696
242.7734375,0.0001523893954771142
242.87109375,0.00022809481477199385
242.96875,0.0001324980229323013
243.06640625,0.0002944952093364463
243.1640625,8.094220611512634e-05
243.26171875,0.00014082976907981454
243.359375,3.083985000475548e-05
243.45703125,0.0001193150408029868
243.5546875,0.00027682507696006746
243.65234375,0.0001475270654255646
243.75,0.0002590647875469324
243.84765625,0.00013851600385536255
243.9453125,0.00012061958174252594
244.04296875,0.00017320082523302485
244.140625,0.00011680150719223463
244.23828125,0.0002253671816774003
244.3359375,7.908495251803834e-05
244.43359375,3.226338281365934e-05
244.53125,0.00014538280136599984
244.62890625,0.00010784989837710055
244.7265625,0.00013087254698839116
244.82421875,0.0001458932696972529
244.921875,0.0001219314193556806
245.01953125,0.0001146230481738758
245.1171875,0.00013610734492496845
245.21484375,0.00022393966306755706
245.3125,0.00021514174044086335
245.41015625,0.00015544181705843396
245.5078125,0.00015592801349485622
245.60546875,0.0002762270418861678
245.703125,0.00016534692980950486
245.80078125,8.329216000348171e-05
245.8984375,5.822699667616603e-05
245.99609375,0.00011543608252936504
246.09375,0.00017095474615369134
246.19140625,0.00021863171277747897
246.2890625,0.00014667550831696946
246.38671875,6.0388393695193286e-05
246.484375,7.49627743590126e-05
246.58203125,2.6920070898415888e-05
246.6796875,6.378937348482802e-05
246.77734375,0.00014164744771973122
246.875,4.670239699923485e-05
246.97265625,0.00014972477817721858
247.0703125,0.0002812325122432872
247.16796875,7.295650909470134e-05
247.265625,6.378255551811974e-05
247.36328125,7.497215009260837e-05
247.4609375,9.394368997043637e-05
247.55859375,0.0001398515401354233
247.65625,4.56137225827063e-05
247.75390625,0.00014937798735755454
247.8515625,0.00012179343610124484
247.94921875,8.194304579120552e-05
248.046875,2.977584441755496e-05
248.14453125,7.777308195016885e-05
248.2421875,0.00011203422088148735
248.33984375,8.556997656678314e-05
248.4375,0.0001627213780527289
248.53515625,5.197488655476838e-05
248.6328125,0.00010977330855987797
248.73046875,4.081271270840912e-05
248.828125,7.623100188976681e-05
248.92578125,0.00021664049277887715
249.0234375,0.00013043137905816813
249.12109375,8.819727730512087e-05
249.21875,0.000131634196038998
249.31640625,2.5719657482533612e-05
249.4140625,0.00012775797277019688
249.51171875,5.252016259161569e-05
249.609375,0.00018645374240381567
249.70703125,0.0001593554970219199
249.8046875,0.0001275775293427529
249.90234375,0.00012577933056306034
250.0,0.00012206601855474467
250.09765625,0.0002819778387110886
250.1953125,0.00020150575595337319
250.29296875,5.979322642847711e-05
250.390625,6.446984393512142e-05
250.48828125,0.0002567973993271851
250.5859375,0.00018156456020510973
250.68359375,0.0001136206742832908
250.78125,1.6941478943272946e-05
250.87890625,0.00016623468294950567
250.9765625,8.855980406241922e-05
251.07421875,0.00016133298287284773
251.171875,0.00022691611642049075
251.26953125,0.00016255660764125167
251.3671875,3.920894952522234e-05
251.46484375,2.0338317006557137e-05
251.5625,0.00021354280775407586
251.66015625,0.0002567556296713638
251.7578125,0.00021817246078104503
251.85546875,1.120357909888588e-05
251.953125,0.00012432700396022438
252.05078125,0.00011662101532645384
252.1484375,5.529629804778928e-05
252.24609375,0.00019771729695094629
252.34375,0.00014212202565224056
252.44140625,0.00019340021157446228
252.5390625,9.760599420304538e-05
252.63671875,0.00016713682169430032
252.734375,0.0001566623320655472
252.83203125,0.0001886551660550878
252.9296875,0.00016286481364131435
253.02734375,0.00011077914330498239
253.125,0.00016812468997657893
253.22265625,6.673528113332273e-05
253.3203125,9.474046073466025e-05
253.41796875,0.000100699334498374
253.515625,0.00015170485851846268
253.61328125,1.9077600998969054e-05
253.7109375,0.00011255039081824426
253.80859375,5.6659884419555936e-05
253.90625,0.00011853028256679733
254.00390625,0.00012300664940601659
254.1015625,0.00015971110781349618
254.19921875,4.3442307019750764e-05
254.296875,0.0001563924395215493
254.39453125,0.00011763510285203862
254.4921875,0.00011146170029183313
254.58984375,0.00017297542306793118
254.6875,0.0001366533146130558
254.78515625,0.00012747003230832013
254.8828125,0.00019659129517540916
254.98046875,0.00014011653868215392
255.078125,0.00017775021209497918
255.17578125,0.0001462736766996089
255.2734375,0.00016463293178963374
255.37109375,7.777470917848128e-05
255.46875,7.324581300960492e-05
255.56640625,0.00015754955775813324
255.6640625,9.362097464836075e-05
255.76171875,3.871100821283798e-05
255.859375,0.00011146613094981019
255.95703125,0.00014630333928494156
256.0546875,9.264121550369572e-05
256.15234375,0.00012055836861578969
256.25,0.0001382397178324814
256.34765625,4.56598572208513e-05
256.4453125,6.202066906235098e-05
256.54296875,0.00011008089817373267
256.640625,9.47679554203546e-06
256.73828125,8.161268911855228e-05
256.8359375,9.179072043734757e-05
256.93359375,6.333681740064324e-05
257.03125,1.7811696414755446e-05
257.12890625,7.22403617456754e-05
257.2265625,7.912783478479441e-05
257.32421875,0.00010820371664652337
257.421875,0.00012204318783432472
257.51953125,2.0412568515392973e-05
257.6171875,0.0001848575646442706
257.71484375,0.00020733015486025923
257.8125,9.563208502161328e-05
257.91015625,5.817085780112049e-05
258.0078125,9.699376346243402e-05
258.10546875,0.00016012802540610755
258.203125,0.0001226201307353416
258.30078125,0.0001829703702123394
258.3984375,0.00018020424058485965
258.49609375,6.7610009305239e-05
258.59375,0.00017502519277162444
258.69140625,5.690054724832956e-05
258.7890625,9.062367349504972e-05
258.88671875,0.000161230160837815
258.984375,0.00012142750279147993
259.08203125,4.0742382369316125e-05
259.1796875,0.0001935626607110022
259.27734375,6.403600973179577e-05
259.375,0.00011665042808970456
259.47265625,2.6192936113285117e-05
259.5703125,5.008798554559157e-05
259.66796875,5.2855368473106744e-05
259.765625,0.0001309668363326676
259.86328125,3.7871508560642245e-05
259.9609375,8.307814712584584e-05
260.05859375,0.00012285404557595107
260.15625,4.808471853363174e-05
260.25390625,4.516710359425663e-05
260.3515625,3.9426519208328985e-05
260.44921875,8.208738611096737e-05
260.546875,0.0001498100181146045
260.64453125,2.7963846185691185e-05
260.7421875,8.834877259459076e-05
260.83984375,3.3267679270701175e-05
260.9375,0.00014992487303953193
261.03515625,8.340389446778306e-05
261.1328125,2.112402080911468e-05
261.23046875,3.621797748335717e-05
261.328125,0.00013004677030390682
261.42578125,9.713675506027797e-05
261.5234375,5.893330987979003e-05
261.62109375,6.550222746565627e-05
261.71875,5.345850162488121e-05
261.81640625,0.00012139032240149919
261.9140625,0.00011325558905196556
262.01171875,0.00011109577455275583
262.109375,7.745580050246084e-05
262.20703125,8.681795700806828e-05
262.3046875,3.948233361145793e-05
262.40234375,9.347335265884056e-05
262.5,0.00014755123862937082
262.59765625,7.376955576134321e-05
262.6953125,0.00012619783960392175
262.79296875,0.00010622624306102673
262.890625,2.988432958284027e-05
262.98828125,0.0001513844617182634
263.0859375,0.00013079061797603554
263.18359375,0.00011451022867656029
263.28125,9.336837325019657e-05
263.37890625,5.4080774225471003e-05
263.4765625,5.579625390699461e-05
263.57421875,0.0002083345217903989
263.671875,0.00012926089446602723
263.76953125,7.955254875446118e-06
263.8671875,7.740746750286605e-05
263.96484375,7.400481656953292e-05
264.0625,3.292051248744278e-05
264.16015625,9.591823232210354e-05
264.2578125,7.152831476520949e-06
264.35546875,8.471859156940033e-05
264.453125,0.00012277748271142714
264.55078125,7.752670528798699e-05
264.6484375,7.212060758498691e-05
264.74609375,8.414897652579256e-05
264.84375,1.8187075130391234e-05
264.94140625,5.309133159543759e-05
265.0390625,0.00011158522171328435
265.13671875,1.3742323530577066e-05
265.234375,6.416380937879115e-05
265.33203125,7.558501998657243e-05
265.4296875,9.050355064066476e-05
265.52734375,0.00017189040920379765
265.625,9.906115830075344e-05
265.72265625,3.77441667619487e-05
265.8203125,2.2687355418494513e-05
265.91796875,2.4924762530575958e-05
266.015625,6.478424382370166e-06
266.11328125,8.774758756194322e-05
266.2109375,4.922059941721809e-05
266.30859375,5.136051262929765e-05
266.40625,0.00010800898126124164
266.50390625,0.0001091712424341282
266.6015625,8.563721560039995e-05
266.69921875,9.017482255029804e-05
266.796875,7.29015371308849e-05
266.89453125,8.147649515193218e-05
266.9921875,0.00013735231126267886
267.08984375,7.448691697684568e-05
267.1875,7.46438468410585e-05
267.28515625,0.00010713828305291661
267.3828125,0.00013099838576861503
267.48046875,0.00015227843053453052
267.578125,0.00010173120251616075
267.67578125,3.2716809514442346e-05
267.7734375,8.098015329654679e-05
267.87109375,0.00011876278622153005
267.96875,0.00013234732713780778
268.06640625,6.043218348721284e-05
268.1640625,3.236055959541604e-05
268.26171875,2.1746326006442014e-05
268.359375,0.00010590109449657554
268.45703125,2.0658952668465038e-05
268.5546875,0.00010068688056263415
268.65234375,0.00010601631305967583
268.75,6.183647231809088e-05
268.84765625,5.896799150862906e-05
268.9453125,7.191176921982375e-05
269.04296875,4.661423902433763e-05
269.140625,2.7038120472110736e-05
269.23828125,2.8346125978684725e-05
269.3359375,5.2430693408663155e-05
269.43359375,3.5255164052620454e-05
269.53125,3.847988122184916e-05
269.62890625,9.717949218911391e-05
269.7265625,9.811228631497334e-05
269.82421875,2.380761907006775e-05
269.921875,6.459666998810986e-05
270.01953125,1.8110395407980393e-05
270.1171875,8.462989665175025e-05
270.21484375,5.444307366800636e-05
270.3125,5.039505279461173e-05
270.41015625,7.503501557604917e-05
270.5078125,0.00011225021025149077
270.60546875,0.00013417436009840282
270.703125,0.00011551879510612509
270.80078125,6.852642887705372e-05
270.8984375,4.3399991248991156e-05
270.99609375,0.00011019989346387597
271.09375,0.00011410163753394663
271.19140625,8.01177029993991e-05
271.2890625,4.37708173084123e-05
271.38671875,9.59699529703443e-05
271.484375,4.97002898495072e-05
271.58203125,5.6391652560281286e-05
271.6796875,9.785387800917704e-05
271.77734375,3.662798555204957e-05
271.875,1.7773165994337495e-05
271.97265625,8.471574444342627e-05
272.0703125,2.5746965088619704e-05
272.16796875,5.302253435539715e-05
272.265625,5.7984611441864424e-05
272.36328125,4.892137403124207e-05
272.4609375,8.640384375341449e-05
272.55859375,0.00012215062191045403
272.65625,8.845344047373236e-05
272.75390625,7.044440369009359e-05
272.8515625,9.157704423816822e-05
272.94921875,2.1757163300480968e-05
273.046875,9.230354713740744e-05
273.14453125,2.223741216370632e-05
273.2421875,8.56656271937763e-05
273.33984375,2.1258560194327438e-05
273.4375,0.00011579075959348539
273.53515625,8.100278159836555e-05
273.6328125,0.00012280108400532385
273.73046875,0.00010169860756289306
273.828125,8.863779804094444e-05
273.92578125,4.90309650685044e-05
274.0234375,6.079428695628869e-05
274.12109375,0.0001001880828533289
274.21875,0.00010478637940691044
274.31640625,5.152194693595173e-05
274.4140625,7.506820758228314e-05
274.51171875,4.874369141638995e-05
274.609375,0.0001274685410213115
274.70703125,3.890744473596239e-05
274.8046875,0.00014236309734231545
274.90234375,0.00011535895235020846
275.0,0.00012317029690128047
275.09765625,0.00011699109989144759
275.1953125,8.032012108633497e-05
275.29296875,9.667744553805054e-05
275.390625,2.4528073037617383e-05
275.48828125,2.852546460775799e-05
275.5859375,9.125195255367613e-05
275.68359375,9.583421455180795e-05
275.78125,3.1038470237585934e-05
275.87890625,5.932549700969303e-05
275.9765625,2.7116512690116556e-05
276.07421875,1.2598868564904392e-05
276.171875,7.230647129742198e-05
276.26953125,5.1355914813079536e-05
276.3671875,7.086715708749268e-05
276.46484375,5.672457192879299e-05
276.5625,7.139340866065164e-05
276.66015625,8.519092604210592e-05
276.7578125,6.276107376412058e-05
276.85546875,4.9220399040033865e-05
276.953125,7.020908593342217e-05
277.05078125,6.904709501312094e-05
277.1484375,0.00011050345819495807
277.24609375,1.3940570195448315e-05
277.34375,3.827043593460505e-05
277.44140625,6.34600986972998e-05
277.5390625,7.491523605942851e-05
277.63671875,6.168201656980473e-05
277.734375,2.426485500493195e-05
277.83203125,6.698794079855847e-05
277.9296875,3.64485131550967e-05
278.02734375,6.757006661430205e-05
278.125,1.576321545592027e-05
278.22265625,3.518179372514027e-05
278.3203125,0.00011414765773687739
278.41796875,5.7340619804525076e-05
278.515625,6.202483243481753e-05
278.61328125,5.0365377947621845e-05
278.7109375,4.2016137563399696e-05
278.80859375,6.114202351892314e-05
278.90625,4.6298900123236624e-05
279.00390625,0.00011851962285792352
279.1015625,0.00011092142224032496
279.19921875,3.4547927437563474e-05
279.296875,5.116995033673887e-05
279.39453125,0.00016057162852926865
279.4921875,5.8487331838395884e-05
279.58984375,2.448740822189206e-05
279.6875,4.760447827530315e-05
279.78515625,1.650088105053833e-05
279.8828125,3.414194243563298e-05
279.98046875,5.3332484047999495e-05
280.078125,3.910939036465692e-05
280.17578125,7.642844655803075e-05
280.2734375,0.00013518521127887259
280.37109375,7.022246661884646e-05
280.46875,4.1027739540352275e-05
280.56640625,3.2152894460334155e-05
280.6640625,2.3848658400900958e-05
280.76171875,2.9622370444255548e-05
280.859375,7.281570211132905e-05
280.95703125,4.4976701541514135e-05
281.0546875,5.034860120024514e-05
281.15234375,8.305060549511451e-05
281.25,4.1823691704133555e-05
281.34765625,5.7025999462910455e-05
281.4453125,6.910614517624972e-05
281.54296875,5.204927708629757e-05
281.640625,6.130785886309154e-05
281.73828125,3.4626166854814576e-05
281.8359375,0.000113573696533902
281.93359375,7.54825247311012e-05
282.03125,2.7739546343620396e-05
282.12890625,2.629613236589038e-05
282.2265625,4.509340316389106e-05
282.32421875,4.7650414972913094e-05
282.421875,4.105193708861229e-06
282.51953125,5.306429749083998e-05
282.6171875,2.8227331420861664e-05
282.71484375,5.424511998671172e-05
282.8125,5.167683299524202e-05
282.91015625,8.942759426408028e-05
283.0078125,5.417470734850091e-05
283.10546875,1.520830423057422e-05
283.203125,0.00010108658890479689
283.30078125,2.667500058100093e-05
283.3984375,5.520932125242769e-05
283.49609375,2.7527726662726176e-05
283.59375,6.307354502106529e-05
283.69140625,0.00011275077196645741
283.7890625,5.6711450387758765e-05
283.88671875,6.077960547755711e-05
283.984375,7.145737691439541e-05
284.08203125,6.147151864550056e-05
284.1796875,1.5405594404954025e-05
284.27734375,2.939828472094192e-05
284.375,8.584121950715286e-05
284.47265625,9.060649286505058e-05
284.5703125,3.678716445555711e-05
284.66796875,7.843270013654051e-05
284.765625,8.170558444185424e-05
284.86328125,6.670279000980833e-05
284.9609375,9.778603939347247e-05
285.05859375,2.4468960355361258e-05
285.15625,4.656953933697615e-05
285.25390625,3.578442159572555e-05
285.3515625,3.690800122613483e-05
285.44921875,4.8457248760645126e-05
285.546875,3.391290471615063e-05
285.64453125,6.917363940045115e-06
285.7421875,3.234690667380327e-05
285.83984375,4.1906900643557205e-05
285.9375,3.917532017487859e-05
286.03515625,3.0153878797390924e-05
286.1328125,6.380786272556912e-05
286.23046875,3.24928177440963e-05
286.328125,5.089283800484022e-05
286.42578125,3.180109862739505e-05
286.5234375,1.759383825371474e-05
286.62109375,4.349720841545774e-05
286.71875,5.094975601354007e-05
286.81640625,6.421225037342924e-05
286.9140625,8.037477095593631e-05
287.01171875,7.010283862864572e-05
287.109375,2.8965819019047838e-05
287.20703125,7.921440380909919e-05
287.3046875,2.5248508733404754e-05
287.40234375,4.476689336572754e-05
287.5,9.70707891125893e-06
287.59765625,4.2148997788651145e-05
287.6953125,7.8460670509602e-06
287.79296875,1.5471696000990414e-05
287.890625,3.576492176149143e-05
287.98828125,7.133642861868955e-05
288.0859375,5.7932166277141585e-05
288.18359375,4.564686208395197e-05
288.28125,1.4118619606197934e-05
288.37890625,3.160422947926531e-05
288.4765625,1.3612441940826932e-05
288.57421875,5.475389360285137e-05
288.671875,3.252349433423383e-05
288.76953125,6.119095192252932e-05
288.8671875,1.7280842497727138e-05
288.96484375,7.398067713312273e-05
289.0625,4.854842818648615e-05
289.16015625,3.834169057894692e-05
289.2578125,3.979348121700344e-05
289.35546875,5.465561166576033e-05
289.453125,3.643591450812484e-05
289.55078125,8.555366528359911e-05
289.6484375,2.609229392187361e-05
289.74609375,4.092363583119568e-05
289.84375,8.61063521412712e-05
289.94140625,9.9625818923555e-06
290.0390625,4.89119496302929e-05
290.13671875,2.3574605941986296e-05
290.234375,5.914645165484316e-05
290.33203125,5.9930805645009354e-05
290.4296875,1.6111279430946042e-06
290.52734375,4.0008204926472574e-05
290.625,3.293779736592538e-05
290.72265625,1.3562027117955921e-05
290.8203125,9.358047623744008e-06
290.91796875,7.232745754105691e-05
291.015625,4.7976939769595614e-05
291.11328125,2.020560751671887e-05
291.2109375,2.0218244066552503e-05
291.30859375,7.10717243515399e-05
291.40625,4.211323854676012e-05
291.50390625,1.5659332415751193e-05
291.6015625,3.228198342593526e-05
291.69921875,5.00125773552463e-05
291.796875,0.00010628368359104279
291.89453125,2.393937575471959e-05
291.9921875,4.254746467772778e-05
292.08984375,1.9103406798276237e-05
292.1875,3.562031354450004e-05
292.28515625,2.9635173252100393e-05
292.3828125,4.651617805941145e-05
292.48046875,4.887266479081616e-05
292.578125,4.5667561087413986e-05
292.67578125,2.8430529344328086e-05
292.7734375,7.35186856607606e-05
292.87109375,4.785297502973246e-05
292.96875,5.530796783233097e-05
293.06640625,4.7740355094544616e-05
293.1640625,1.924244453416601e-05
293.26171875,3.7518347536749584e-05
293.359375,1.593609171730579e-05
293.45703125,5.129743317314504e-05
293.5546875,5.7333313785259706e-05
293.65234375,2.2876731752538045e-05
293.75,3.300456715478995e-05
293.84765625,6.639572525967671e-05
293.9453125,7.119963661364508e-05
294.04296875,2.632966126382676e-05
294.140625,2.3967596500866174e-05
294.23828125,5.099586109791546e-05
294.3359375,4.5206532524959256e-05
294.43359375,4.576688511626214e-05
294.53125,9.366145934474347e-06
294.62890625,5.242929042893843e-05
294.7265625,5.447682549745559e-05
294.82421875,6.366373614090717e-05
294.921875,1.8533234663565347e-05
295.01953125,1.7565574900594905e-05
295.1171875,2.0543926152682072e-05
295.21484375,2.7573064995461705e-05
295.3125,2.1271805379788563e-05
295.41015625,4.2892247050492174e-05
295.5078125,1.536323349828656e-05
295.60546875,3.718097387008116e-05
295.703125,4.7266877671959426e-05
295.80078125,6.905812265482997e-05
295.8984375,3.8148269403603106e-05
295.99609375,2.6978028007710888e-05
296.09375,2.5915440511621184e-05
296.19140625,1.597072007270566e-05
296.2890625,6.38295275338624e-05
296.38671875,3.0683164621063327e-05
296.484375,2.5993623773260217e-05
296.58203125,3.998716660509283e-05
296.6796875,1.7925913597658834e-05
296.77734375,2.683033624645636e-05
296.875,1.2165494272490554e-05
296.97265625,4.7301938004331516e-05
297.0703125,5.9006722103664993e-05
297.16796875,8.286705142456002e-06
297.265625,5.308284014259468e-05
297.36328125,4.978413725381649e-05
297.4609375,4.256373005696178e-05
297.55859375,7.718005383645811e-05
297.65625,6.374038892565015e-05
297.75390625,7.339044092528482e-05
297.8515625,6.220590187472523e-05
297.94921875,0.00011455993254142047
298.046875,7.199582629068062e-05
298.14453125,4.6370410312725594e-05
298.2421875,4.639255366467957e-05
298.33984375,2.4909424225638357e-05
298.4375,4.814976163671305e-05
298.53515625,1.4476431633676443e-05
298.6328125,2.6004647913278463e-05
298.73046875,4.513392716988201e-05
298.828125,6.967917812336392e-06
298.92578125,2.7976286529197427e-05
299.0234375,6.499455673959584e-05
299.12109375,4.721951513597253e-05
299.21875,1.7946473486561473e-05
299.31640625,5.479146028254961e-05
299.4140625,1.462670841261064e-05
299.51171875,2.356629360761498e-05
299.609375,3.750838463594461e-05
299.70703125,4.941975988470896e-05
299.8046875,1.2520402610212493e-05
299.90234375,2.8558661362702074e-05
300.0,2.841244853184492e-05
300.09765625,5.1840379463784876e-05
300.1953125,8.739308007471226e-05
300.29296875,1.957978341468005e-05
300.390625,4.319498175053513e-05
300.48828125,0.00010484035955772545
300.5859375,3.482584631418935e-05
300.68359375,5.48004714571863e-05
300.78125,6.985090548380152e-05
300.87890625,4.556000892612567e-05
300.9765625,4.191018956590694e-05
301.07421875,4.1146107121706174e-05
301.171875,3.616093330489903e-05
301.26953125,6.986035115939164e-05
301.3671875,2.137943127473026e-05
301.46484375,2.5800480805910812e-05
301.5625,5.467896010617244e-05
301.66015625,1.7378588692907988e-05
301.7578125,7.065605863234127e-05
301.85546875,4.4570949549348725e-05
301.953125,5.005447153358025e-05
302.05078125,2.7524072219033636e-05
302.1484375,4.124723600189403e-05
302.24609375,2.6111264944488794e-05
302.34375,3.89140706299662e-05
302.44140625,1.692196448071033e-05
302.5390625,3.526403010131663e-05
302.63671875,7.515380713268128e-05
302.734375,3.246358416247528e-05
302.83203125,5.145909324834894e-05
302.9296875,3.202908425873287e-05
303.02734375,2.413438463867083e-05
303.125,5.2762740942797115e-06
303.22265625,8.158354551525575e-06
303.3203125,2.6523352693624262e-05
303.41796875,1.2806933870601495e-05
303.515625,3.180621434051977e-05
303.61328125,5.744001230533188e-05
303.7109375,4.9007176399470836e-05
303.80859375,3.622216189165927e-05
303.90625,1.7400586161553407e-05
304.00390625,1.7900017707609818e-05
304.1015625,6.30428780844375e-05
304.19921875,8.337458014966106e-06
304.296875,5.2608412480257715e-05
304.39453125,4.720516559491374e-05
304.4921875,2.4705663911246154e-05
304.58984375,4.3333581982395584e-05
304.6875,2.0928209431863924e-05
304.78515625,2.8829301348355562e-05
304.8828125,8.586938209201376e-06
304.98046875,1.9676077350849114e-05
305.078125,1.897408644710574e-05
305.17578125,8.176151327938371e-06
305.2734375,8.618247101775473e-06
305.37109375,4.537205161797413e-05
305.46875,2.5445945381034833e-05
305.56640625,2.4919313264397275e-05
305.6640625,1.8110698336421985e-05
305.76171875,3.7843095688804195e-06
305.859375,1.3162311504510827e-05
305.95703125,1.9051404499449423e-05
306.0546875,4.463475033985466e-05
306.15234375,5.171498734116393e-05
306.25,2.963000318476879e-05
306.34765625,7.462839106579837e-05
306.4453125,2.164006647927246e-05
306.54296875,1.507442189230844e-05
306.640625,4.3753878758164156e-05
306.73828125,1.2089183093764748e-05
306.8359375,2.71623990044666e-05
306.93359375,1.7353096731272753e-05
307.03125,1.749816023824409e-05
307.12890625,4.034795621526825e-05
307.2265625,3.5879385679300325e-05
307.32421875,3.297076442216416e-05
307.421875,3.6963249637854217e-05
307.51953125,4.1681829171010176e-05
307.6171875,1.9860592432950844e-05
307.71484375,5.216433150155831e-05
307.8125,4.250355619950712e-05
307.91015625,2.2914893617507487e-05
308.0078125,1.1534100433415035e-05
308.10546875,4.2157749462607737e-07
308.203125,5.2012225378399336e-05
308.30078125,5.760283263272839e-05
308.3984375,1.5442223322333518e-05
308.49609375,4.142093369923276e-05
308.59375,1.1384466696875769e-05
308.69140625,3.090107326978257e-05
308.7890625,4.371523213447248e-05
308.88671875,3.2986387021795206e-05
308.984375,4.8237867895790736e-05
309.08203125,3.965168018763013e-05
309.1796875,2.649963840087902e-05
309.27734375,3.3286515832293315e-05
309.375,4.3705860324137996e-05
309.47265625,2.6312138885733675e-05
309.5703125,9.070370848287874e-06
309.66796875,3.211605803111458e-05
309.765625,5.45350055036245e-05
309.86328125,9.319332559827653e-06
309.9609375,6.545866103947828e-06
310.05859375,2.9961379770586608e-05
310.15625,2.7540259464822397e-05
310.25390625,4.696883961330155e-05
310.3515625,5.5593692956026e-05
310.44921875,3.372017589241142e-05
310.546875,2.1448064737184548e-05
310.64453125,9.628618748920781e-06
310.7421875,2.419908530159237e-05
310.83984375,4.037503249339671e-05
310.9375,1.813534299591723e-05
311.03515625,2.6225508767015524e-05
311.1328125,5.3847103051153915e-05
311.23046875,3.7960269322310577e-05
311.328125,2.6147819238810432e-05
311.42578125,2.061782620835805e-05
311.5234375,4.6060721054724896e-05
311.62109375,4.0466283238815846e-05
311.71875,2.7755694379507626e-05
311.81640625,2.105462629622302e-05
311.9140625,3.589560431375187e-05
312.01171875,3.501295601048489e-05
312.109375,2.1465603639812074e-05
312.20703125,2.1072974190523668e-05
312.3046875,1.1675383409882432e-05
312.40234375,2.7633684451650726e-05
312.5,3.215661492390968e-05
312.59765625,2.103579799766252e-05
312.6953125,3.172832038152246e-05
312.79296875,4.423577507889447e-05
312.890625,2.4729154770274088e-05
312.98828125,2.1182779216391665e-05
313.0859375,6.796736791902898e-06
313.18359375,3.4598847214620395e-05
313.28125,1.9795880707396574e-05
313.37890625,2.7127275977380078e-05
313.4765625,8.283210246549417e-06
313.57421875,4.25027504234439e-05
313.671875,5.2571758738249355e-05
313.76953125,4.739655017417188e-05
313.8671875,1.6577004663374427e-05
313.96484375,2.415145771865098e-05
314.0625,2.3785133117393265e-05
314.16015625,2.100310350530206e-05
314.2578125,1.408024817299313e-05
314.35546875,2.7410464899137494e-05
314.453125,1.5466417584209677e-05
314.55078125,1.758324396191705e-05
314.6484375,2.7583554414820307e-05
314.74609375,2.312542875307817e-05
314.84375,7.538901036337943e-06
314.94140625,1.5785632126024467e-05
315.0390625,4.669986609718471e-05
315.13671875,2.8329347422499196e-05
315.234375,2.199802904803606e-05
315.33203125,1.0035381892790299e-05
315.4296875,1.30115197539794e-05
315.52734375,2.674677784426656e-05
315.625,2.9741619448930232e-05
315.72265625,2.2106728823063124e-05
315.8203125,3.77652331090111e-05
315.91796875,3.598883620474216e-05
316.015625,2.5284385908492103e-05
316.11328125,2.45000409328175e-05
316.2109375,1.3543697795673603e-05
316.30859375,3.383436522495599e-05
316.40625,3.454602314921147e-05
316.50390625,1.836050351094782e-05
316.6015625,1.3429369315126798e-05
316.69921875,3.2923916065196806e-05
316.796875,1.3175403265456874e-05
316.89453125,4.6072346097999864e-05
316.9921875,6.804219629468196e-05
317.08984375,8.063091866452107e-06
317.1875,2.0931129028660898e-05
317.28515625,2.5458847121704665e-05
317.3828125,1.523521839383888e-05
317.48046875,2.5738461556591144e-05
317.578125,2.870792070759601e-05
317.67578125,1.872461654500365e-05
317.7734375,3.2659834600718045e-05
317.87109375,3.333976222042787e-06
317.96875,1.4690241948501236e-05
318.06640625,3.1286769214089e-05
318.1640625,4.363587838019048e-05
318.26171875,2.008940025986768e-05
318.359375,2.001941561578934e-05
318.45703125,1.3582503130395507e-05
318.5546875,1.0037820680822981e-05
318.65234375,3.6145180927365545e-05
318.75,5.080849551699953e-06
318.84765625,2.7214664578808835e-05
318.9453125,2.3624752241794608e-05
319.04296875,1.9480417330116336e-05
319.140625,1.667104264759671e-05
319.23828125,3.8145414692203674e-05
319.3359375,2.819055189508545e-05
319.43359375,3.928965522609135e-05
319.53125,2.2002007723091894e-05
319.62890625,2.7681074106767186e-05
319.7265625,6.984956026095101e-06
319.82421875,7.007032413917849e-06
319.921875,1.5486009286289474e-05
320.01953125,2.921598966701287e-05
320.1171875,1.4607398035212496e-05
320.21484375,9.483558715017191e-06
320.3125,2.323358555859314e-05
320.41015625,1.4531824552691086e-05
320.5078125,9.836185072054253e-06
320.60546875,2.1184081021960617e-05
320.703125,1.5747485858954513e-05
320.80078125,2.8069992986670068e-05
320.8984375,1.6593062751238594e-05
320.99609375,2.0545914229095017e-05
321.09375,2.744990658012751e-05
321.19140625,3.103333542098711e-05
321.2890625,2.1714983987847802e-05
321.38671875,9.887449009754286e-06
321.484375,1.4373247385507104e-05
321.58203125,4.6238298455960534e-05
321.6796875,2.180344306552125e-05
321.77734375,2.0455143816418308e-05
321.875,2.9131307238800837e-05
321.97265625,1.3086619680984218e-05
322.0703125,2.047071035446477e-05
322.16796875,2.0405826709789054e-05
322.265625,3.198534637576965e-05
322.36328125,5.046782542087048e-06
322.4609375,2.765686061506351e-05
322.55859375,2.1279699356276948e-05
322.65625,5.391167226931644e-05
322.75390625,4.66537399871468e-06
322.8515625,1.953080716720392e-05
322.94921875,3.3707209756036814e-05
323.046875,2.808625677329267e-05
323.14453125,3.4986732586370554e-05
323.2421875,1.385607684969805e-05
323.33984375,1.2318091448855373e-05
323.4375,5.938228116809985e-05
323.53515625,1.7282145408511395e-05
323.6328125,3.700585995012085e-05
323.73046875,3.714343969423123e-05
323.828125,3.1659930791492096e-05
323.92578125,3.897408070286423e-05
324.0234375,4.542492371962265e-05
324.12109375,1.1623537589018874e-05
324.21875,1.093308721395548e-05
324.31640625,2.7253311169993653e-05
324.4140625,2.406315911261826e-05
324.51171875,2.2560229006057448e-05
324.609375,3.081180193989415e-05
324.70703125,3.448748133269591e-06
324.8046875,9.710072260744582e-06
324.90234375,3.6092378238882305e-05
325.0,1.6167442451290618e-05
325.09765625,2.6846576265452014e-05
325.1953125,1.9356573127350417e-05
325.29296875,3.1818359625063804e-05
325.390625,1.790883413670481e-05
325.48828125,1.276202489116325e-05
325.5859375,3.512662326936834e-05
325.68359375,6.721071131212572e-06
325.78125,9.864630721470534e-06
325.87890625,2.2553527990749736e-05
325.9765625,4.252008475972992e-06
326.07421875,1.0075607310324655e-05
326.171875,1.9533319193681073e-05
326.26953125,1.9649684693860848e-05
326.3671875,1.742205395944213e-05
326.46484375,3.335093308743175e-05
326.5625,1.804640803983296e-05
326.66015625,1.7161410801419273e-05
326.7578125,2.2575737377292194e-05
326.85546875,1.18340621246584e-05
326.953125,3.078719656474023e-05
327.05078125,1.4279863502612452e-06
327.1484375,5.537339799754979e-06
327.24609375,2.0387410174303268e-05
327.34375,2.099136567416073e-05
327.44140625,1.8938233592975215e-05
327.5390625,8.69314742349748e-06
327.63671875,1.7364682552704666e-05
327.734375,2.317353315674304e-05
327.83203125,1.7209080960876482e-05
327.9296875,3.0427210205159545e-05
328.02734375,3.047051209450113e-05
328.125,2.3566586640046376e-05
328.22265625,3.87447931782973e-05
328.3203125,1.815962126872639e-05
328.41796875,1.3591326739631166e-05
328.515625,1.820991827660621e-05
328.61328125,2.8278968053140608e-05
328.7109375,2.1656106501996757e-05
328.80859375,4.049454603879802e-06
328.90625,1.2272981628147318e-05
329.00390625,1.282382677085828e-05
329.1015625,2.3415768559116785e-05
329.19921875,3.186156364893245e-05
329.296875,1.336607007765975e-05
329.39453125,2.591696739954617e-05
329.4921875,2.383888083526192e-05
329.58984375,2.4290579498051643e-05
329.6875,1.8784014216490468e-05
329.78515625,9.737180069690983e-06
329.8828125,2.2457959673061713e-05
329.98046875,9.480819025333672e-06
330.078125,6.9693013619276685e-06
330.17578125,2.275195340747875e-05
330.2734375,6.12003743824547e-06
330.37109375,1.4951044967433719e-05
330.46875,6.609260235641898e-05
330.56640625,1.4722073057088922e-05
330.6640625,9.562251750884837e-06
330.76171875,2.6864127915112797e-05
330.859375,9.900272008039634e-06
330.95703125,3.73090911946833e-05
331.0546875,2.417739206088539e-05
331.15234375,1.0856743402000198e-05
331.25,2.9387148521950145e-06
331.34765625,1.4680983763899453e-05
331.4453125,3.061352101973145e-05
331.54296875,1.0329338539916136e-05
331.640625,1.9038325240868285e-05
331.73828125,1.5667350246217517e-05
331.8359375,1.0558838774252226e-05
331.93359375,3.94171918604881e-05
332.03125,1.7848261851035056e-05
332.12890625,1.3902029935459232e-05
332.2265625,1.9906297898317815e-05
332.32421875,2.0647996070860647e-05
332.421875,2.6903946504797258e-05
332.51953125,1.3874127103436296e-05
332.6171875,8.379507769604132e-06
332.71484375,2.3828089118950822e-05
332.8125,1.1971911992891943e-05
332.91015625,1.470266004089504e-05
333.0078125,1.3730965964360584e-05
333.10546875,1.453294262419e-05
333.203125,1.501976893656519e-05
333.30078125,1.2532299727003126e-05
333.3984375,1.3501212323272904e-05
333.49609375,2.329525950747946e-05
333.59375,2.952435293428581e-05
333.69140625,2.629394357871682e-05
333.7890625,1.6618585020943065e-05
333.88671875,1.671974070733924e-05
333.984375,1.6264938128382397e-05
334.08203125,2.4621523412259007e-05
334.1796875,1.065932539384631e-05
334.27734375,1.1353779375393058e-05
334.375,7.797108948104978e-06
334.47265625,7.184772869438391e-06
334.5703125,1.198337532957208e-05
334.66796875,3.03048330725218e-05
334.765625,2.506689366121807e-05
334.86328125,2.1056460237352403e-05
334.9609375,2.517457521102886e-05
335.05859375,2.408184845087504e-05
335.15625,4.821286557404744e-06
335.25390625,7.630155659677874e-06
335.3515625,1.4824575769255552e-05
335.44921875,3.345652781722152e-05
335.546875,4.242549451260056e-05
335.64453125,3.5597419926832095e-05
335.7421875,2.943254839818017e-05
335.83984375,2.499370553394419e-05
335.9375,1.835619618700863e-05
336.03515625,3.140138804510722e-05
336.1328125,2.7647111409624434e-05
336.23046875,1.1742273839230163e-05
336.328125,2.431659646075081e-05
336.42578125,1.2629060325701153e-05
336.5234375,4.257299398265088e-05
336.62109375,7.481137748756695e-06
336.71875,1.3920687195525809e-05
336.81640625,1.8503084840949105e-05
336.9140625,1.5902944851618577e-05
337.01171875,1.3498096917633809e-05
337.109375,1.304880188910476e-05
337.20703125,1.632779770604972e-05
337.3046875,2.6349656775750685e-06
337.40234375,8.05170823712628e-06
337.5,1.6323316706207188e-05
337.59765625,2.1458207219840296e-05
337.6953125,1.6452188908501957e-05
337.79296875,1.751497955352934e-05
337.890625,9.205924124053134e-06
337.98828125,2.0227245849268838e-05
338.0859375,3.0682118350895555e-06
338.18359375,1.6884634941938673e-05
338.28125,1.6055459933143482e-05
338.37890625,3.6266201991379675e-06
338.4765625,1.8643563926537944e-05
338.57421875,9.662575167639026e-06
338.671875,1.8523683861260353e-05
338.76953125,6.400701110054822e-06
338.8671875,1.4875095368581949e-05
338.96484375,1.871507462525712e-05
339.0625,4.359239528163879e-06
339.16015625,5.839737543407545e-06
339.2578125,6.41665163516205e-06
339.35546875,6.427535587302115e-06
339.453125,9.298446953435615e-06
339.55078125,2.4748738080908356e-05
339.6484375,1.7847220586110254e-05
339.74609375,4.618436385538054e-06
339.84375,2.1536018426969442e-05
339.94140625,8.750496531433155e-06
340.0390625,2.198489086561884e-05
340.13671875,7.853273963302313e-06
340.234375,1.4191790283793145e-06
340.33203125,3.108209557190264e-05
340.4296875,2.403791139328711e-05
340.52734375,1.4456704830429114e-05
340.625,2.084471302508878e-05
340.72265625,1.7896798721487837e-05
340.8203125,2.2737422280166356e-05
340.91796875,1.2695328086171239e-05
341.015625,1.7585299372397998e-05
341.11328125,1.186246763444469e-05
341.2109375,1.1654857766778888e-05
341.30859375,8.985270616755688e-06
341.40625,5.75922237184539e-06
341.50390625,1.97057355331758e-05
341.6015625,1.2336307798148402e-05
341.69921875,2.2809289462790886e-05
341.796875,1.7196551022115945e-05
341.89453125,1.1201651242918245e-05
341.9921875,1.1835784314542231e-05
342.08984375,5.62882533277332e-06
342.1875,1.8522294039360416e-05
342.28515625,5.948836790015584e-06
342.3828125,1.3420453583258249e-05
342.48046875,1.1873681534153584e-05
342.578125,5.82307294194908e-06
342.67578125,3.1848223865845245e-05
342.7734375,1.6187351792512695e-05
342.87109375,1.3395029805252375e-05
342.96875,2.7566365423417427e-05
343.06640625,1.1772503063338958e-05
343.1640625,2.96827983947057e-05
343.26171875,1.9526510218406677e-05
343.359375,2.251991279519109e-05
343.45703125,1.634138467306641e-05
343.5546875,1.037256125707529e-05
343.65234375,1.4512771044714309e-05
343.75,1.0304437218510008e-05
343.84765625,7.442850880612697e-06
343.9453125,1.402033484098921e-05
344.04296875,7.708589035269745e-06
344.140625,7.121979088485707e-06
344.23828125,6.239949696741724e-06
344.3359375,1.7655669461698892e-05
344.43359375,9.578573764454851e-06
344.53125,1.814661809519369e-05
344.62890625,2.7241212121846484e-05
344.7265625,1.0236144820704924e-05
344.82421875,1.9294656730235933e-05
344.921875,5.782337515643373e-06
345.01953125,2.484141982258835e-05
345.1171875,9.752961783692912e-06
345.21484375,5.700532947220954e-06
345.3125,6.284414616039089e-06
345.41015625,6.4467258071181e-06
345.5078125,2.313369385184406e-05
