Time (s),Filtered EMG Contracted
0.0,1.2391461576113467e-05
0.09765625,1.2391518337904617e-05
0.1953125,1.2391688626071187e-05
0.29296875,1.2391972449021789e-05
0.390625,1.2392369820745948e-05
0.48828125,1.2392880760856254e-05
0.5859375,1.2393505294558682e-05
0.68359375,1.2394243452673755e-05
0.78125,1.239509527163121e-05
0.87890625,1.2396060793487013e-05
0.9765625,1.2397140065914672e-05
1.07421875,1.239833314221736e-05
1.171875,1.2399640081351428e-05
1.26953125,1.2401060947902102e-05
1.3671875,1.2402595812122242e-05
1.46484375,1.2404244749925483e-05
1.5625,1.240600784290475e-05
1.66015625,1.2407885178341694e-05
1.7578125,1.2409876849227229e-05
1.85546875,1.2411982954269478e-05
1.953125,1.2414203597803457e-05
2.05078125,1.2416538890033802e-05
2.1484375,1.2418988946974024e-05
2.24609375,1.2421553890390204e-05
2.34375,1.2424233847413948e-05
2.44140625,1.2427028951644462e-05
2.5390625,1.2429939342268636e-05
2.63671875,1.2432965163216434e-05
2.734375,1.2436106568449453e-05
2.83203125,1.2439363710966908e-05
2.9296875,1.2442736754511713e-05
3.02734375,1.2446225865138368e-05
3.125,1.2449831223591926e-05
3.22265625,1.2453553005705997e-05
3.3203125,1.2457391402468392e-05
3.41796875,1.2461346595046595e-05
3.515625,1.2465418819911867e-05
3.61328125,1.246960822429803e-05
3.7109375,1.247391504495358e-05
3.80859375,1.2478339494687513e-05
3.90625,1.2482881816429962e-05
4.00390625,1.248754232998839e-05
4.1015625,1.2492321005664104e-05
4.19921875,1.2497218223400295e-05
4.296875,1.2502234424918059e-05
4.39453125,1.2507369617087161e-05
4.4921875,1.2512624261556068e-05
4.58984375,1.2517998003384082e-05
4.6875,1.252349198567056e-05
4.78515625,1.2529106164147966e-05
4.8828125,1.2534840640945601e-05
4.98046875,1.2540695932863653e-05
5.078125,1.2546672565513402e-05
5.17578125,1.2552769683567977e-05
5.2734375,1.2558989541697986e-05
5.37109375,1.256533147858067e-05
5.46875,1.2571793388639353e-05
5.56640625,1.2578382135238902e-05
5.6640625,1.2585088280485463e-05
5.76171875,1.259192417938012e-05
5.859375,1.2598876119270445e-05
5.95703125,1.2605955172585128e-05
6.0546875,1.2613168757512484e-05
6.15234375,1.262048876838917e-05
6.25,1.2627944930587764e-05
6.34765625,1.2635525406887424e-05
6.4453125,1.2643239264241314e-05
6.54296875,1.265106759105222e-05
6.640625,1.2659024527338011e-05
6.73828125,1.2667116208103742e-05
6.8359375,1.2675323471378394e-05
6.93359375,1.2683672985244039e-05
7.03125,1.2692146759137401e-05
7.12890625,1.2700743953905516e-05
7.2265625,1.2709506038940516e-05
7.32421875,1.2718315036534682e-05
7.421875,1.272732513707479e-05
7.51953125,1.2736415366773833e-05
7.6171875,1.2745661455662366e-05
7.71484375,1.2755036671053026e-05
7.8125,1.2764577809927275e-05
7.91015625,1.2774230854021422e-05
8.0078125,1.2784021401584354e-05
8.10546875,1.2793883630814172e-05
8.203125,1.280396463670403e-05
8.30078125,1.2814069382486882e-05
8.3984375,1.2824559487482972e-05
8.49609375,1.2834947710323784e-05
8.59375,1.2845615492016266e-05
8.69140625,1.2856338918258858e-05
8.7890625,1.2867217345711032e-05
8.88671875,1.2878155740461191e-05
8.984375,1.28894717337918e-05
9.08203125,1.2900568401580306e-05
9.1796875,1.2912095884184565e-05
9.27734375,1.2923407953188593e-05
9.375,1.2935214835766736e-05
9.47265625,1.2947009362940493e-05
9.5703125,1.2959070287722568e-05
9.66796875,1.297134697503751e-05
9.765625,1.2983720268394192e-05
9.86328125,1.2996251599101344e-05
9.9609375,1.3008725941766238e-05
10.05859375,1.3021661981337034e-05
10.15625,1.3033816494924483e-05
10.25390625,1.3047341582620788e-05
10.3515625,1.3060396484618776e-05
10.44921875,1.3073625700844064e-05
10.546875,1.3086595863718941e-05
10.64453125,1.3100233502970762e-05
10.7421875,1.3114698731543752e-05
10.83984375,1.3128591684247278e-05
10.9375,1.3142440658307502e-05
11.03515625,1.3156929030178241e-05
11.1328125,1.317119624789812e-05
11.23046875,1.3185779929800549e-05
11.328125,1.3199527559137236e-05
11.42578125,1.3215166542778872e-05
11.5234375,1.3230521818653551e-05
11.62109375,1.3244689346917296e-05
11.71875,1.3263226499961954e-05
11.81640625,1.3275871726172706e-05
11.9140625,1.3292149900603168e-05
12.01171875,1.3306726071332616e-05
12.109375,1.3323957183633228e-05
12.20703125,1.33405521389546e-05
12.3046875,1.3355854649516378e-05
12.40234375,1.3370441907850239e-05
12.5,1.3389979706299632e-05
12.59765625,1.340294425109234e-05
12.6953125,1.3423713988733049e-05
12.79296875,1.3446129219611068e-05
12.890625,1.3454675741744592e-05
12.98828125,1.3468834982325817e-05
13.0859375,1.349369008200485e-05
13.18359375,1.3512758421495118e-05
13.28125,1.3528293752419064e-05
13.37890625,1.3540970700583276e-05
13.4765625,1.3563711936028197e-05
13.57421875,1.357545577629866e-05
13.671875,1.3604740196917738e-05
13.76953125,1.3624559752515515e-05
13.8671875,1.3640271682391312e-05
13.96484375,1.3661881399450001e-05
14.0625,1.3686200834742151e-05
14.16015625,1.3698177769997517e-05
14.2578125,1.3715083559388467e-05
14.35546875,1.3739497716957656e-05
14.453125,1.3761528174473592e-05
14.55078125,1.3769534245436296e-05
14.6484375,1.380019105163136e-05
14.74609375,1.382182786546714e-05
14.84375,1.3838771657894491e-05
14.94140625,1.3845331986464288e-05
15.0390625,1.3876653649143298e-05
15.13671875,1.394328947203802e-05
15.234375,1.393358460485385e-05
15.33203125,1.3958524777551022e-05
15.4296875,1.3975925855397707e-05
15.52734375,1.4019193158267487e-05
15.625,1.4036049025467841e-05
15.72265625,1.4058246685737955e-05
15.8203125,1.4041388362036413e-05
15.91796875,1.4094037996875763e-05
16.015625,1.4133819547673476e-05
16.11328125,1.4125710073212923e-05
16.2109375,1.4165522258635722e-05
16.30859375,1.4201998904741571e-05
16.40625,1.4214152114514462e-05
16.50390625,1.4221960645253076e-05
16.6015625,1.4223106056270683e-05
16.69921875,1.4255985117252168e-05
16.796875,1.432995524637135e-05
16.89453125,1.4315819967603337e-05
16.9921875,1.4349573589935966e-05
17.08984375,1.432424419090269e-05
17.1875,1.4369409303389002e-05
17.28515625,1.4421594514345153e-05
17.3828125,1.4453645873538238e-05
17.48046875,1.4483681857453058e-05
17.578125,1.4458593196337226e-05
17.67578125,1.4498735757566935e-05
17.7734375,1.4600235655091296e-05
17.87109375,1.4567445164991497e-05
17.96875,1.4685102201772284e-05
18.06640625,1.4630585469528182e-05
18.1640625,1.4662063034462005e-05
18.26171875,1.455151334097892e-05
18.359375,1.480805557711505e-05
18.45703125,1.4628634485775678e-05
18.5546875,1.4883818070170565e-05
18.65234375,1.4815487223611457e-05
18.75,1.4914583927539463e-05
18.84765625,1.5148938470210868e-05
18.9453125,1.5069568117479426e-05
19.04296875,1.4944926109806347e-05
19.140625,1.5077769252763371e-05
19.23828125,1.5017307648677406e-05
19.3359375,1.5091168563415777e-05
19.43359375,1.5011546887475824e-05
19.53125,1.4984317661267275e-05
19.62890625,1.5197145727093904e-05
19.7265625,1.5006235125014544e-05
19.82421875,1.54684999894606e-05
19.921875,1.5356735716484855e-05
20.01953125,1.572339525169287e-05
20.1171875,1.5209560766326142e-05
20.21484375,1.5013794939381384e-05
20.3125,1.5351534386296785e-05
20.41015625,1.5412032226863394e-05
20.5078125,1.5365735162692424e-05
20.60546875,1.5219517629522258e-05
20.703125,1.5798639936013885e-05
20.80078125,1.573550742862726e-05
20.8984375,1.5861210601251146e-05
20.99609375,1.572800734826363e-05
21.09375,1.5131713777497878e-05
21.19140625,1.6016434525708814e-05
21.2890625,1.600774212700813e-05
21.38671875,1.5828746982657107e-05
21.484375,1.5826272480005797e-05
21.58203125,1.6478971751665677e-05
21.6796875,1.5372789895475025e-05
21.77734375,1.607105368580178e-05
21.875,1.531599259468376e-05
21.97265625,1.619965179466632e-05
22.0703125,1.536170925022374e-05
22.16796875,1.5198478783364574e-05
22.265625,1.6461953700902014e-05
22.36328125,1.6896074479928168e-05
22.4609375,1.686847994013429e-05
22.55859375,1.6783780232777324e-05
22.65625,1.5736035196654256e-05
22.75390625,1.5699249854303842e-05
22.8515625,1.6791619261530058e-05
22.94921875,1.749131783469164e-05
23.046875,1.756460489905452e-05
23.14453125,1.729266779840523e-05
23.2421875,1.634183945906603e-05
23.33984375,1.6703375546332644e-05
23.4375,1.694435168015336e-05
23.53515625,1.7681115113443824e-05
23.6328125,1.6828784876670708e-05
23.73046875,1.6392989963847983e-05
23.828125,1.6860814448091818e-05
23.92578125,1.88250587635711e-05
24.0234375,1.789367390844012e-05
24.12109375,1.8937839053793934e-05
24.21875,1.840382343872811e-05
24.31640625,1.9395845788393007e-05
24.4140625,1.7347158708392913e-05
24.51171875,1.4726540644470654e-05
24.609375,1.8246626707879736e-05
24.70703125,2.1291327644348915e-05
24.8046875,1.797778966305316e-05
24.90234375,2.0056924187471698e-05
25.0,1.9465042738125207e-05
25.09765625,1.8776410467080546e-05
25.1953125,2.0071844983725014e-05
25.29296875,1.7780255423034773e-05
25.390625,1.5895866357697082e-05
25.48828125,1.8563742003849058e-05
25.5859375,2.072949512060341e-05
25.68359375,1.433873506643785e-05
25.78125,2.4511085521450324e-05
25.87890625,1.887760892231738e-05
25.9765625,1.754048926495989e-05
26.07421875,1.916711320679201e-05
26.171875,2.2716728154832434e-05
26.26953125,2.7027435223032835e-05
26.3671875,2.2638054621118574e-05
26.46484375,1.9725461228949143e-05
26.5625,1.7554892664616838e-05
26.66015625,2.334524119580205e-05
26.7578125,2.3737127273047373e-05
26.85546875,2.223252090687376e-05
26.953125,1.8246719669785805e-05
27.05078125,2.4500466068680895e-05
27.1484375,2.1048178136681593e-05
27.24609375,2.0044943253838166e-05
27.34375,1.901223529204008e-05
27.44140625,3.6318621719448216e-05
27.5390625,2.9254414538563095e-05
27.63671875,3.675892076684397e-05
27.734375,3.2757004405679575e-05
27.83203125,2.5115957782108465e-05
27.9296875,3.0604535547156223e-05
28.02734375,1.7794029744348426e-05
28.125,1.9112858689932178e-05
28.22265625,2.35053599009473e-05
28.3203125,2.7069425779756716e-05
28.41796875,4.037897263363475e-05
28.515625,3.571418629267638e-05
28.61328125,4.5501500459717786e-05
28.7109375,5.076858082548345e-05
28.80859375,6.080603183746727e-05
28.90625,7.800802500052535e-05
29.00390625,0.00011064830702801521
29.1015625,0.0001870692821367352
29.19921875,0.00033441886897130464
29.296875,0.0004312030802970847
29.39453125,0.0004507746548495782
29.4921875,0.0002794551503686405
29.58984375,0.00014781033128732197
29.6875,8.991899138865365e-05
29.78515625,6.365468710576952e-05
29.8828125,5.18111563304511e-05
29.98046875,4.6879876454409506e-05
30.078125,3.652063525369912e-05
30.17578125,4.733761113076775e-05
30.2734375,3.407683975006724e-05
30.37109375,1.3738398554670544e-05
30.46875,4.7228828534424814e-05
30.56640625,3.9314744297314465e-05
30.6640625,5.4870404818727607e-05
30.76171875,3.168535222316292e-05
30.859375,2.4444291980323273e-05
30.95703125,3.605173447695362e-05
31.0546875,1.7689235265614393e-05
31.15234375,1.1851061104906056e-05
31.25,4.73321980328527e-05
31.34765625,2.8522712200278847e-05
31.4453125,2.63558785342202e-05
31.54296875,2.987108458121746e-05
31.640625,4.8822726244094886e-05
31.73828125,4.739611218699801e-05
31.8359375,9.056505241303977e-05
31.93359375,2.6068635271583858e-05
32.03125,3.9032691898876255e-05
32.12890625,2.828998024351388e-05
32.2265625,4.2258122033516214e-05
32.32421875,5.21401032552361e-05
32.421875,2.1500090344880768e-05
32.51953125,7.025772190457449e-05
32.6171875,8.44477947899301e-05
32.71484375,7.901080782011358e-05
32.8125,3.32051849338212e-05
32.91015625,5.609337658446605e-05
33.0078125,4.4995042162503834e-05
33.10546875,7.789135847818426e-05
33.203125,2.594300506789713e-05
33.30078125,0.00011013279183831495
33.3984375,5.5382448000978985e-05
33.49609375,4.049330698404968e-05
33.59375,8.341214006798626e-05
33.69140625,0.00015193051064160503
33.7890625,5.2752086461361954e-05
33.88671875,7.997226949528588e-05
33.984375,0.00010739786046792325
34.08203125,0.00020286504275271417
34.1796875,0.00020559318344000994
34.27734375,4.2067274566637346e-05
34.375,4.3859169016024085e-05
34.47265625,0.00024142316711517838
34.5703125,7.784281384133005e-05
34.66796875,3.1837612034154396e-05
34.765625,0.0001068905351138205
34.86328125,6.473340181777382e-05
34.9609375,7.794788978553954e-05
35.05859375,8.754274833002776e-05
35.15625,0.0002368076733253458
35.25390625,0.0003035822249060242
35.3515625,0.00013745831650729834
35.44921875,0.0001274657110715302
35.546875,0.00020414243614602992
35.64453125,0.00016065238662835624
35.7421875,5.265406090217278e-05
35.83984375,0.0001954710574951358
35.9375,0.0002590179824951072
36.03515625,0.0001728963183231027
36.1328125,0.00035281065166414144
36.23046875,0.00037859599044817727
36.328125,0.0002974915864157637
36.42578125,0.00031872601062339216
36.5234375,0.0005071666625414783
36.62109375,0.0002725275195842864
36.71875,0.0002455986038700346
36.81640625,0.00021798052114406155
36.9140625,0.0003826126787398559
37.01171875,0.00014063688494241197
37.109375,0.00014156669337402048
37.20703125,0.00019679950785045548
37.3046875,0.00013891234364904554
37.40234375,0.0011487647911416887
37.5,0.0005102251131069064
37.59765625,0.00029113424792917634
37.6953125,0.0006057849893663769
37.79296875,0.00032913801215758633
37.890625,0.0003278507424073723
37.98828125,0.0005926310265289552
38.0859375,0.000408878746102971
38.18359375,0.00027719926081315455
38.28125,0.0006070635422351978
38.37890625,0.0007627962930280451
38.4765625,0.0006858486030176111
38.57421875,0.00017582450795020348
38.671875,0.0007871459608245493
38.76953125,0.0005331900650948168
38.8671875,0.0006788540686917189
38.96484375,0.0010743712910900557
39.0625,0.0006180688033766493
39.16015625,0.0004072065760993297
39.2578125,0.0010831898301394234
39.35546875,0.000561888245178443
39.453125,0.0006777517818822801
39.55078125,0.0008391043794952069
39.6484375,0.0005170979810089027
39.74609375,0.00040817493546635355
39.84375,0.0021246043093767247
39.94140625,0.00038351710289135716
40.0390625,0.0003122326679354704
40.13671875,0.0013595844143090255
40.234375,0.0015648402326330743
40.33203125,0.0011380953142501218
40.4296875,0.0008677309180335531
40.52734375,0.001073052972447985
40.625,0.0017158074954630052
40.72265625,0.0013892796889370148
40.8203125,0.0002507146814592877
40.91796875,0.0007013061120662938
41.015625,0.0016497631568221278
41.11328125,0.0025410338223580088
41.2109375,0.0007429668968847096
41.30859375,0.0017326804507330096
41.40625,0.0007846314438562879
41.50390625,0.001856792548475217
41.6015625,0.0001913319794942208
41.69921875,0.0012028184279132671
41.796875,0.0001441553675342103
41.89453125,0.00029292078771149587
41.9921875,0.002994992694598381
42.08984375,0.0025961083231492744
42.1875,0.0007322682336093203
42.28515625,0.0015847416083740727
42.3828125,0.0007702366978495291
42.48046875,0.001119174268939766
42.578125,0.0026018092624037095
42.67578125,0.0015965307286418728
42.7734375,0.0014973574143619126
42.87109375,0.0018102110061444417
42.96875,0.0009934789192096202
43.06640625,0.0015915552880433983
43.1640625,0.0020481714269064456
43.26171875,0.0014265555039890997
43.359375,0.0010755478014098296
43.45703125,0.0013384824488030754
43.5546875,0.0008993197663066895
43.65234375,0.0009377745573646411
43.75,0.001534255449058929
43.84765625,0.001878495392857088
43.9453125,0.0014861211249301304
44.04296875,0.0027357630648399143
44.140625,0.0013514106511096733
44.23828125,0.0013730073438240412
44.3359375,0.00189613861152457
44.43359375,0.0009218783268716579
44.53125,0.0012146866902689058
44.62890625,0.0013702458215951443
44.7265625,0.0009140635987742673
44.82421875,0.0012922741849092242
44.921875,0.0021363700699341534
45.01953125,0.002769705228924889
45.1171875,0.0010421280789386263
45.21484375,0.0017994272374406634
45.3125,0.0005379428942481999
45.41015625,0.0008682592006207144
45.5078125,0.0007713245921827064
45.60546875,0.0006093182891161473
45.703125,0.0015035081584308045
45.80078125,0.0007278102707592541
45.8984375,0.001568215245782195
45.99609375,0.00202926770543726
46.09375,0.0012392556894704997
46.19140625,0.00034777658304185985
46.2890625,0.0012506111357265324
46.38671875,0.0007183472347149647
46.484375,0.003151957217371763
46.58203125,0.0013120799168795383
46.6796875,0.0014830725725092598
46.77734375,5.9932971992245305e-05
46.875,0.0006477621995698162
46.97265625,0.0011698832982357866
47.0703125,0.0011530626896839552
47.16796875,0.002607762479905332
47.265625,0.001130535416591479
47.36328125,0.0004794565698378101
47.4609375,0.0006699959679795795
47.55859375,0.0017300146735580284
47.65625,0.0015736047950461716
47.75390625,0.0005464099757640036
47.8515625,0.0012035492279014685
47.94921875,0.0007095395627696636
48.046875,0.0007644090714560965
48.14453125,0.002040471679520299
48.2421875,0.0004386777394298878
48.33984375,0.0011657641810352592
48.4375,0.0011386781237308
48.53515625,0.0012260361462715188
48.6328125,0.0008061625246195179
48.73046875,0.0023296992769544517
48.828125,0.0014692276417753662
48.92578125,0.0029201314234765007
49.0234375,0.0007451719279752992
49.12109375,0.0003447173016673966
49.21875,0.0024790010394493416
49.31640625,0.0014715020949814818
49.4140625,0.0012076839508408247
49.51171875,0.0005476392604254124
49.609375,0.00044269838640146437
49.70703125,0.0024342964936060886
49.8046875,0.0005443989410703261
49.90234375,0.0014959726682093686
50.0,0.0006127392928027033
50.09765625,0.0012014012917196998
50.1953125,0.00202936464980979
50.29296875,0.0023266655082666505
50.390625,0.0013241116401631811
50.48828125,0.0006505047836667904
50.5859375,0.0008628235524076865
50.68359375,0.000862427852801486
50.78125,0.0013438194053172622
50.87890625,0.0002736698663205914
50.9765625,0.0010339236636600162
51.07421875,0.0005042468611805678
51.171875,0.0016136453660427624
51.26953125,0.0016025061194096827
51.3671875,0.0011852695123920713
51.46484375,0.0008605396052417796
51.5625,0.0006993427456655873
51.66015625,0.00043932888058242307
51.7578125,0.0008858492502306642
51.85546875,0.0023473038436816625
51.953125,0.00119105364103924
52.05078125,0.0013519913759680192
52.1484375,0.00036158535665411514
52.24609375,0.001004360519035088
52.34375,0.0003939465798162058
52.44140625,0.00011578787803109702
52.5390625,0.0008826568420696355
52.63671875,0.0008604468054417655
52.734375,0.0011977531262164082
52.83203125,0.0011583089627933225
52.9296875,0.00239232025250577
53.02734375,0.0025101909897884715
53.125,0.0006930999965683103
53.22265625,6.30512633990068e-05
53.3203125,0.002118231386235118
53.41796875,0.0006277067058579637
53.515625,0.0011769242726982591
53.61328125,0.0005917528537556473
53.7109375,0.0009493668301246013
53.80859375,0.0007034301770694021
53.90625,0.0010348704496733754
54.00390625,0.001782513943351491
54.1015625,0.0016038525560811664
54.19921875,0.0020410582445581664
54.296875,0.0010987972880792361
54.39453125,0.0004936715793663386
54.4921875,0.001243818463106129
54.58984375,0.0013113003353413864
54.6875,0.002325115682069351
54.78515625,0.0008311195306382708
54.8828125,0.0012733722331027192
54.98046875,0.002070659451133399
55.078125,0.0023657635890898766
55.17578125,0.0015285040054582538
55.2734375,0.00098931161022523
55.37109375,0.0017709746579879294
55.46875,0.0010549635466573543
55.56640625,0.00048757066238368083
55.6640625,0.0012312194625733273
55.76171875,0.0006962235808981327
55.859375,6.455202329385965e-05
55.95703125,0.0012300168991987324
56.0546875,0.001783904921739906
56.15234375,0.0006753978376368929
56.25,0.0013137346330529148
56.34765625,0.0016139970433466989
56.4453125,0.0005993611012114909
56.54296875,0.000590092631058504
56.640625,0.000923645960203531
56.73828125,0.00047777321946461913
56.8359375,0.00015613076794219213
56.93359375,0.0014038571450758466
57.03125,0.0005139742506304419
57.12890625,0.0007824200944464561
57.2265625,0.0006187539312862848
57.32421875,0.00024789382433961925
57.421875,0.0005704596963597204
57.51953125,0.0002028710362830046
57.6171875,0.0002269195576122404
57.71484375,0.00014493118723959617
57.8125,0.00010565130196799437
57.91015625,7.285157355689418e-05
58.0078125,2.0116546817464127e-05
58.10546875,3.85573027750171e-05
58.203125,6.020527464358457e-05
58.30078125,4.703296082856624e-05
58.3984375,4.898144539286231e-05
58.49609375,4.1046657335284484e-05
