Time (s),Filtered EMG Relaxed
0.0,3.2432859163323064e-06
0.09765625,2.969737108561633e-05
0.1953125,0.00010671370270557944
0.29296875,9.629815634916395e-05
0.390625,8.924169981435002e-05
0.48828125,8.549882387653432e-05
0.5859375,8.449447937112196e-05
0.68359375,8.115821325501981e-05
0.78125,7.834534541528558e-05
0.87890625,8.380515467161584e-05
0.9765625,8.141401490828753e-05
1.07421875,8.022935607592113e-05
1.171875,9.08845678811676e-05
1.26953125,7.22466712329457e-05
1.3671875,7.509567835835267e-05
1.46484375,7.865990489370908e-05
1.5625,7.697312461189609e-05
1.66015625,8.744274837584458e-05
1.7578125,0.00010196129835744842
1.85546875,8.87524078919348e-05
1.953125,7.276555205362201e-05
2.05078125,7.370226822042419e-05
2.1484375,3.97557898642885e-05
2.24609375,9.494628381093506e-05
2.34375,8.898060710318457e-05
2.44140625,0.0001182998977887176
2.5390625,9.501160986712096e-05
2.63671875,0.00011342306913284542
2.734375,0.000134148010773285
2.83203125,7.267400067566288e-05
2.9296875,6.126126401169736e-05
3.02734375,6.034782665016123e-05
3.125,7.144332873034625e-05
3.22265625,0.00018663673110859782
3.3203125,7.143425201992811e-05
3.41796875,0.0001396047019322267
3.515625,0.0001776515997109409
3.61328125,8.011771694896566e-05
3.7109375,0.0001397271638790858
3.80859375,0.00020511951664844804
3.90625,0.0001090815426519537
4.00390625,7.889330294959651e-05
4.1015625,0.00022035949130963926
4.19921875,0.0001359595082398789
4.296875,6.83435553584166e-05
4.39453125,8.605151961282101e-05
4.4921875,0.00013489292006816232
4.58984375,0.0001626767180560227
4.6875,0.00010129471852128644
4.78515625,0.000120700927573493
4.8828125,0.0001824307086291349
4.98046875,0.00011392112501359179
5.078125,0.0001292290750661268
5.17578125,0.0002180263199560828
5.2734375,0.00013589637157544545
5.37109375,0.00010190925759728143
5.46875,0.00016743831897566593
5.56640625,0.00017685215308044258
5.6640625,6.498180722783866e-05
5.76171875,8.770842050863484e-05
5.859375,5.5107689513745057e-05
5.95703125,0.000116356968123874
6.0546875,0.0002590749046177904
6.15234375,0.00016647485678747306
6.25,0.0001793681144455416
6.34765625,0.00032627524525084654
6.4453125,0.00021724910419870477
6.54296875,0.00016290863643198558
6.640625,0.00030691079126371766
6.73828125,6.069884385009537e-05
6.8359375,0.00023915944950049828
6.93359375,0.00016488649768650244
7.03125,0.00021001495378943446
7.12890625,3.5619564573924434e-05
7.2265625,0.00036535671918508643
7.32421875,9.848340968066435e-05
7.421875,0.0003358259653351065
7.51953125,0.0002246341531575079
7.6171875,0.00017499816682426344
7.71484375,5.667564518717423e-05
7.8125,0.000540954967509968
7.91015625,5.5563983194021325e-05
8.0078125,0.00019098478337826064
8.10546875,8.946827318003222e-05
8.203125,0.00020286407455520714
8.30078125,0.00034151940473886724
8.3984375,4.456142900682892e-05
8.49609375,0.0003178592778295205
8.59375,0.00026090041756610913
8.69140625,0.00010213749560074141
8.7890625,0.00012795049468423001
8.88671875,0.00036900027130403644
8.984375,0.00013292551965013997
9.08203125,0.0002619442483300631
9.1796875,9.447098487951085e-05
9.27734375,0.00037169698621266473
9.375,0.00016513089124662697
9.47265625,0.00010823996811856515
9.5703125,0.00025151638998501213
9.66796875,0.00017907770605791773
9.765625,0.00010107767879434867
9.86328125,0.00025593344352098726
9.9609375,0.00025735749750842887
10.05859375,0.0001504282968598543
10.15625,8.476469850512668e-05
10.25390625,0.0001227488047707065
10.3515625,0.0003894001047512456
10.44921875,0.00023547221013156354
10.546875,2.5972786595151913e-05
10.64453125,0.0001599873190644235
10.7421875,0.00021857452663975744
10.83984375,9.31709837732895e-05
10.9375,0.00013964600057689123
11.03515625,0.00028848554103854594
11.1328125,0.00022752258552743095
11.23046875,0.0003741832897318746
11.328125,0.0003416212838694962
11.42578125,0.00024356027296358772
11.5234375,0.00012667827208314063
11.62109375,0.0002618715430747586
11.71875,0.00020988138306693075
11.81640625,0.0001917364722269887
11.9140625,0.00029736420856194207
12.01171875,0.00010832723428955787
12.109375,0.00022487979977887744
12.20703125,0.00014497321218219075
12.3046875,0.0001614441815313654
12.40234375,0.0001784862687747795
12.5,0.00037414094825766143
12.59765625,0.000179691599129452
12.6953125,0.00015188701125657257
12.79296875,0.0004797706564340159
12.890625,0.00026912461122131676
12.98828125,0.00014352114147796703
13.0859375,5.653382929910844e-05
13.18359375,0.0001137221451399807
13.28125,0.0003181914334712426
13.37890625,0.00024246093050185296
13.4765625,6.79870999118394e-05
13.57421875,0.0002814558069567162
13.671875,0.0001457365509053385
13.76953125,0.00024960151910591045
13.8671875,0.00014757547059430622
13.96484375,0.000150026383629596
14.0625,0.00023286624459762582
14.16015625,0.0001666087125793055
14.2578125,0.0001829921475315196
14.35546875,0.00016067546684092973
14.453125,0.0003761066914908462
14.55078125,0.00013811832283000392
14.6484375,9.315039999487845e-05
14.74609375,0.00034840994185111646
14.84375,0.0002382526192378088
14.94140625,0.00016738507877274596
15.0390625,0.0003637843766092469
15.13671875,0.00023761719616836906
15.234375,0.00016790072127234178
15.33203125,0.0002509831591584678
15.4296875,0.00021992923385257934
15.52734375,0.00028403603967896914
15.625,0.00012694209486643833
15.72265625,0.00017678862421966135
15.8203125,5.506763849080224e-05
15.91796875,0.00014078217919883505
16.015625,0.0001073944050140975
16.11328125,0.00024871857552601263
16.2109375,0.0002182176556255771
16.30859375,0.00012177847509512025
16.40625,0.0003879800657346386
16.50390625,3.617328905812649e-05
16.6015625,8.171567485060964e-05
16.69921875,0.00010473437400662812
16.796875,0.0003663149524263824
16.89453125,0.000248662894281224
16.9921875,0.00013832016328726402
17.08984375,8.3950721149236e-05
17.1875,0.0002857076430658545
17.28515625,8.080045354192908e-05
17.3828125,0.0002423818243572593
17.48046875,0.00024725914516474985
17.578125,0.0003109489890396601
17.67578125,4.8125239516382e-05
17.7734375,0.00033675230409821466
17.87109375,8.406580009622915e-05
17.96875,0.00010980778522764425
18.06640625,0.000392976113905195
18.1640625,0.00010349230084510897
18.26171875,0.0003138428989766224
18.359375,0.000499861492839767
18.45703125,9.306754760142957e-05
18.5546875,0.00039846293222860576
18.65234375,7.30020389256465e-05
18.75,0.00037626943674497594
18.84765625,0.00033495210302202815
18.9453125,0.0002925997584502653
19.04296875,0.00018306623778374857
19.140625,0.00016343258891716932
19.23828125,0.0002683240524694976
19.3359375,0.0002631349075854355
19.43359375,0.0003549939714474064
19.53125,0.0002777115445408717
19.62890625,0.000153496159170688
19.7265625,0.0003058386295795281
19.82421875,0.0001720017192369694
19.921875,0.00038964887441458266
20.01953125,0.00022602950298516666
20.1171875,0.0001258890354121596
20.21484375,0.0003205535683706547
20.3125,0.00048296287795589974
20.41015625,0.00021065197712319628
20.5078125,0.00020397069605677595
20.60546875,0.0002843795640225612
20.703125,0.00016054577716063947
20.80078125,0.0001071907511739488
20.8984375,0.00036074391596428945
20.99609375,0.0003713098685866833
21.09375,0.00029091673402204774
21.19140625,0.0002960528033161504
21.2890625,0.00046040976163954885
21.38671875,0.00027309886902925345
21.484375,0.0003111479805533586
21.58203125,0.0004530438869837113
21.6796875,0.00028126829786081527
21.77734375,0.00017246426265436808
21.875,0.00037750117500598017
21.97265625,0.0002777379931968833
22.0703125,0.0003501095807468686
22.16796875,0.0004659479927428119
22.265625,0.00045142452141976215
22.36328125,0.0004550730656554744
22.4609375,0.00041632969939722514
22.55859375,0.00026333058780960697
22.65625,0.0003643447698330726
22.75390625,0.00033714208044523014
22.8515625,0.0007441701278588967
22.94921875,0.00015990236750299805
23.046875,0.00043321331544994855
23.14453125,0.000483337205137982
23.2421875,0.0002162206352521321
23.33984375,0.0004475428689598181
23.4375,0.00040849903436769743
23.53515625,0.00038332993594760427
23.6328125,0.00016735666558387265
23.73046875,0.0004442196736248875
23.828125,0.0003738456092736153
23.92578125,0.0003307993406108711
24.0234375,0.00046495729358717356
24.12109375,0.0005549871561337991
24.21875,0.0005550430628431133
24.31640625,0.00032366319460725075
24.4140625,0.0003823359942143555
24.51171875,0.00021594474305443014
24.609375,0.00046126092912072167
24.70703125,0.0004249268192635841
24.8046875,0.0005459546148527376
24.90234375,0.0006657802155395253
25.0,0.0005648040902686543
25.09765625,0.0004886241531020521
25.1953125,0.000341696611896442
25.29296875,0.0004662834068368689
25.390625,0.0005664743033686035
25.48828125,0.0007250085336897545
25.5859375,0.0004890890787041459
25.68359375,0.00045458242594563676
25.78125,0.0005496958744131188
25.87890625,0.000601191245257623
25.9765625,0.0006754026290564237
26.07421875,0.0006690302091750274
26.171875,0.0004894403749843569
26.26953125,0.000554377896269282
26.3671875,0.0006491327157315276
26.46484375,0.000871542966660554
26.5625,0.0008388552345613775
26.66015625,0.000806640653784492
26.7578125,0.0009138384410511276
26.85546875,0.000843603738154057
26.953125,0.0008047438997810501
27.05078125,0.0011143747753723046
27.1484375,0.0007946709027266499
27.24609375,0.0009065004813995971
27.34375,0.000903916027922022
27.44140625,0.001111873506277438
27.5390625,0.0013050632028655113
27.63671875,0.0013681353833438505
27.734375,0.0013970864215104267
27.83203125,0.0014317432094584695
27.9296875,0.0019227512452935894
28.02734375,0.0015594205191845482
28.125,0.001883943755582415
28.22265625,0.0018477628389057523
28.3203125,0.0022875885965691015
28.41796875,0.002581006818264997
28.515625,0.002779235399783809
28.61328125,0.003326254220936681
28.7109375,0.0040502319414321445
28.80859375,0.00507325550718906
28.90625,0.006869127734454826
29.00390625,0.010499030293305234
29.1015625,0.018631159987028436
29.19921875,0.03443092570286133
29.296875,0.04445250782406254
29.39453125,0.040806975445006284
29.4921875,0.024218647219819596
29.58984375,0.012847694927094406
29.6875,0.007848393288349
29.78515625,0.005587190004734315
29.8828125,0.004309218362397341
29.98046875,0.0035896527342003954
30.078125,0.0030558054920618643
30.17578125,0.002652528761468666
30.2734375,0.0023323732934354513
30.37109375,0.00223540827841754
30.46875,0.002053125004546992
30.56640625,0.0017685268263641569
30.6640625,0.0017454289907567703
30.76171875,0.0013330586329978052
30.859375,0.0012988356280128738
30.95703125,0.001330239820689686
31.0546875,0.0015148401363628483
31.15234375,0.001017700399713065
31.25,0.0011640273436798242
31.34765625,0.001172184426556754
31.4453125,0.0008862681567073405
31.54296875,0.001002334312723013
31.640625,0.0010008048454653504
31.73828125,0.000892922059793024
31.8359375,0.0008798167905988851
31.93359375,0.0009077897706981381
32.03125,0.0008534252758674656
32.12890625,0.0006911951063871781
32.2265625,0.0006546303374220901
32.32421875,0.0007671291047024591
32.421875,0.0006821681365077816
32.51953125,0.0007075433635367575
32.6171875,0.0006367818737680066
32.71484375,0.000514663171837923
32.8125,0.0005350954110756196
32.91015625,0.0006486767134285362
33.0078125,0.0008586495172577563
33.10546875,0.0004182850486120786
33.203125,0.0006923991640361699
33.30078125,0.00046972990129071383
33.3984375,0.0008293201342014924
33.49609375,0.0006490257798837997
33.59375,0.0005206033658182269
33.69140625,0.0004178133092508371
33.7890625,0.00046728037018997013
33.88671875,0.0005828075413637814
33.984375,0.0005205241574649886
34.08203125,0.0006618998987378755
34.1796875,0.0006298914312098911
34.27734375,0.00046243454432948666
34.375,0.0004237701262481796
34.47265625,0.0006496862608654633
34.5703125,0.0005246030061157478
34.66796875,0.00035911104407790323
34.765625,0.00036965708216140167
34.86328125,0.0006119427831180619
34.9609375,0.0003899064379138746
35.05859375,0.00040981482356558757
35.15625,0.0003326395101559729
35.25390625,0.00038666297473847854
35.3515625,0.00041091665030726766
35.44921875,0.0003555400041441957
35.546875,0.00045727674789105936
35.64453125,0.000445174015276509
35.7421875,0.0005078139574741375
35.83984375,0.00033461363893147835
35.9375,4.510860996061111e-05
36.03515625,0.000313006162566266
36.1328125,0.00043346189243085925
36.23046875,0.0002966765406503657
36.328125,0.0004858862991986941
36.42578125,0.00036790561934920964
36.5234375,0.00041832982170059434
36.62109375,0.00048032491356303844
36.71875,0.0001123107028562449
36.81640625,0.0004987661279439925
36.9140625,0.00025324440936715873
37.01171875,0.0002665582461385022
37.109375,0.0003446982909957549
37.20703125,0.0002500810736042273
37.3046875,0.000408990920961837
37.40234375,0.0003267656576561341
37.5,0.0002510214222567804
37.59765625,0.00024577699935904713
37.6953125,0.00012355561199914452
37.79296875,0.0004556074544397374
37.890625,0.0005118445596465881
37.98828125,0.00024412335459569423
38.0859375,0.0001726010389087719
38.18359375,0.0004361414226294029
38.28125,0.00012888455049646233
38.37890625,0.00016612265756908002
38.4765625,5.441945699101074e-05
38.57421875,0.00027826913230118974
38.671875,0.0003139333907104571
38.76953125,0.00021034531738969907
38.8671875,0.0005776169746756223
38.96484375,0.00042237330248928436
39.0625,0.0002177145596354483
39.16015625,0.0004998394351845636
39.2578125,0.0002891378913884045
39.35546875,0.0004215904485578622
39.453125,0.00043530982871391736
39.55078125,0.0001433478253156812
39.6484375,0.00022147694126600006
39.74609375,0.0003140043556783496
39.84375,0.0002479218852301749
39.94140625,0.0002034518898553216
40.0390625,0.00023911320113841126
40.13671875,0.00027008738400126955
40.234375,0.0005392044780290803
40.33203125,0.000379507397342224
40.4296875,0.00027719610274231043
40.52734375,0.000368949449319919
40.625,0.00012159925101531593
40.72265625,0.00012456310264619656
40.8203125,0.00011559630828550447
40.91796875,0.0002454632999754355
41.015625,0.0003539274051958326
41.11328125,0.00022236960061747179
41.2109375,0.0003146009694357751
41.30859375,4.306378074755323e-05
41.40625,0.00016894260049408552
41.50390625,0.00043085583075444707
41.6015625,0.0002482687116843338
41.69921875,0.00030020097800937876
41.796875,0.0002805337840192877
41.89453125,0.00037258550038367616
41.9921875,0.00029416145554656404
42.08984375,0.0002466696472025981
42.1875,0.00020291778562357487
42.28515625,2.544230987151639e-05
42.3828125,0.00036041379662654757
42.48046875,0.0001207377183829116
42.578125,0.00027977284999970877
42.67578125,0.00013809917105500383
42.7734375,0.00012335173310662836
42.87109375,0.00024751901114727454
42.96875,0.0004339623310907888
43.06640625,9.086600781399619e-05
43.1640625,0.00030466373834179926
43.26171875,0.00018148131272108952
43.359375,0.00015265195218187042
43.45703125,0.00029990383795385194
43.5546875,0.00027912221936230846
43.65234375,9.451683642520622e-05
43.75,0.00020792850550124085
43.84765625,0.00010072223385396106
43.9453125,0.000499024617577127
44.04296875,0.00020410814561878365
44.140625,0.00012552838376796505
44.23828125,0.0001671185324589372
44.3359375,0.00015172340932753474
44.43359375,0.0003472408977635612
44.53125,0.0003670477043780071
44.62890625,0.0001898526434853015
44.7265625,0.000306119241047261
44.82421875,0.0001130752360084749
44.921875,0.00035564059160753564
45.01953125,0.00023486170633011045
45.1171875,0.00034082991216992213
45.21484375,0.00013065181392768558
45.3125,0.00017470685766122153
45.41015625,0.00017047975885788172
45.5078125,0.0001505284358430325
45.60546875,0.0002898192696929443
45.703125,0.00020592853393106461
45.80078125,0.00023752611635301205
45.8984375,0.00025105841521182154
45.99609375,0.00026562617288931927
46.09375,0.0002039324834690937
46.19140625,0.0003101997458270459
46.2890625,0.00037245930359462286
46.38671875,0.00011567477785448218
46.484375,0.00017695113311196083
46.58203125,0.0002934634081213885
46.6796875,0.0001996655330252304
46.77734375,9.840164276632474e-05
46.875,0.00026294799976167067
46.97265625,0.0002678129752602096
47.0703125,0.0002453856466466246
47.16796875,0.0001535223928166288
47.265625,0.00012055312971280927
47.36328125,0.0001315659359207786
47.4609375,8.439331108078272e-05
47.55859375,0.0001139884330291175
47.65625,0.00022518313539028422
47.75390625,4.220537551736595e-05
47.8515625,3.3378183427309506e-05
47.94921875,0.00018460826306765377
48.046875,0.00021094776899050808
48.14453125,0.0001478996697546692
48.2421875,0.00019812188706992345
48.33984375,0.00016750534107433368
48.4375,0.00022938393219964337
48.53515625,9.240785089377915e-05
48.6328125,0.0001059588378158817
48.73046875,9.241359377371491e-05
48.828125,0.00026503499976889336
48.92578125,0.00017249643542815096
49.0234375,0.0003089303589156212
49.12109375,0.00023128742888469715
49.21875,3.511106505686817e-05
49.31640625,0.00017794005864094932
49.4140625,0.0002861295379002092
49.51171875,3.390639506131514e-05
49.609375,0.0005005531623016541
49.70703125,0.00010951023317117383
49.8046875,7.855745022523913e-05
49.90234375,0.00027506028937333317
50.0,0.00016787735160108126
50.09765625,0.0001092825162669747
50.1953125,0.00010593917855921379
50.29296875,0.0002636373862993644
50.390625,0.00018435181899171515
50.48828125,9.175687860342764e-05
50.5859375,0.00010926537785930354
50.68359375,0.000137687302911245
50.78125,0.00012664023227224584
50.87890625,0.0001056170405723491
50.9765625,0.00011380315810518749
51.07421875,0.00013182278660225962
51.171875,9.58809397042318e-05
51.26953125,0.00019233862972382212
51.3671875,0.0001111567854343487
51.46484375,0.00024265299873307876
51.5625,0.00018028204346991835
51.66015625,0.0002881872519014103
51.7578125,0.000115512393847854
51.85546875,0.00026662051575197066
51.953125,0.00010526091536990588
52.05078125,0.00014707004638228426
52.1484375,0.00031283979161408443
52.24609375,0.00019059415499696056
52.34375,4.990134388112953e-05
52.44140625,0.00023695437910933176
52.5390625,0.00010882384841201282
52.63671875,0.0001823694199496485
52.734375,4.350711123517018e-05
52.83203125,0.0002841014467489522
52.9296875,0.00014555223208070922
53.02734375,0.000305742927596208
53.125,0.0002949387936374735
53.22265625,0.00014471831442445441
53.3203125,0.0001621317052418166
53.41796875,0.0002671566069520648
53.515625,0.0001273534900330701
53.61328125,0.0002694248455710232
53.7109375,0.00030279834735160577
53.80859375,0.00018794648043128515
53.90625,0.00023882701904873118
54.00390625,0.00011679573352972994
54.1015625,0.0002556057330297911
54.19921875,6.467102351634548e-05
54.296875,0.00010730576348104468
54.39453125,0.0002251660048185663
54.4921875,0.00010957101152043665
54.58984375,2.0797695262414584e-05
54.6875,2.94820882167943e-05
54.78515625,0.0002209175882153445
54.8828125,0.0001351669713504994
54.98046875,0.0002512301799342676
55.078125,0.00012299402856931515
55.17578125,0.0003116545542011072
55.2734375,0.0002655438632266294
55.37109375,1.3054966882115224e-05
55.46875,0.00019602297777037748
55.56640625,9.647859678387187e-05
55.6640625,0.00011101263195200861
55.76171875,0.00018155949545213762
55.859375,1.3152311678397303e-05
55.95703125,9.047989179268692e-05
56.0546875,0.0001206989162961993
56.15234375,0.00030340978052652246
56.25,0.00021968798996900942
56.34765625,0.0002490784920634924
56.4453125,7.627947487847498e-05
56.54296875,0.00021955913140243074
56.640625,0.00019608835860702412
56.73828125,0.00021681310374999422
56.8359375,0.00024833614352504926
56.93359375,9.575437202236999e-05
57.03125,0.00011692162377492321
57.12890625,0.00013403108080615517
57.2265625,0.0001217308372578785
57.32421875,5.241083783766372e-05
57.421875,5.397251002407016e-05
57.51953125,3.7186026284635444e-05
57.6171875,6.520203008416804e-05
57.71484375,7.756905746402424e-05
57.8125,5.462940064714454e-05
57.91015625,5.304973156032497e-05
58.0078125,6.350922776810537e-05
58.10546875,5.8843037827175785e-05
58.203125,6.185976306465071e-05
58.30078125,5.7884044356680265e-05
58.3984375,5.835359074080079e-05
58.49609375,5.818349519797381e-05
58.59375,5.7853484719586656e-05
58.69140625,5.744469131642072e-05
58.7890625,5.711200563447385e-05
58.88671875,5.6813777909479386e-05
58.984375,5.6539543239162017e-05
59.08203125,5.629858724523513e-05
59.1796875,5.6048530634452315e-05
59.27734375,5.580400535353831e-05
59.375,5.557135207334092e-05
59.47265625,5.534666165891091e-05
59.5703125,5.512908924188582e-05
59.66796875,5.49182903318974e-05
59.765625,5.471387480875421e-05
59.86328125,5.451549607561377e-05
59.9609375,5.4322872966341446e-05
60.05859375,5.413577905757491e-05
60.15625,5.395404096798234e-05
60.25390625,5.3777537625347775e-05
60.3515625,5.360621338795202e-05
60.44921875,5.343995971982254e-05
60.546875,5.327938948849602e-05
60.64453125,5.3122998957595996e-05
60.7421875,5.297289666255419e-05
60.83984375,5.28325683977166e-05
60.9375,5.2720117126290244e-05
61.03515625,5.260527270415859e-05
61.1328125,5.23641846379807e-05
61.23046875,5.251875698683225e-05
61.328125,5.222994152236557e-05
61.42578125,5.297977336553809e-05
61.5234375,5.172914095173187e-05
61.62109375,5.0359714076621465e-05
61.71875,4.9589745632406095e-05
61.81640625,5.01649043904716e-05
61.9140625,4.82713149917078e-05
62.01171875,4.73880587474496e-05
62.109375,4.806428357044709e-05
62.20703125,5.656060858228152e-05
62.3046875,7.35631209061468e-05
62.40234375,3.118307341637478e-05
62.5,0.00010514882079218439
62.59765625,3.429180085850215e-05
62.6953125,6.024271808681086e-05
62.79296875,0.00016707875040735033
62.890625,0.00010765476905896404
62.98828125,9.925830403411992e-05
63.0859375,5.2276029514836104e-05
63.18359375,8.056340174982925e-05
63.28125,0.00016890029894693832
63.37890625,0.0001335981298535112
63.4765625,0.0002628371534617061
63.57421875,3.465559931699872e-05
63.671875,7.116424726086799e-05
63.76953125,0.00015123843613813975
63.8671875,0.00018257326711106306
63.96484375,0.00023561944987780773
64.0625,0.00010112650316022032
64.16015625,0.0001121625924999047
64.2578125,0.00013949910031912832
64.35546875,0.00026837757652311807
64.453125,0.00022317274439791158
64.55078125,8.347144225996926e-05
64.6484375,0.00015518627146371642
64.74609375,0.0001294436309429409
64.84375,0.00036110523357416264
64.94140625,8.027281172143676e-05
65.0390625,0.00025969993294174286
65.13671875,0.00016864859829880728
65.234375,0.00011457088010555851
65.33203125,0.00011780757108319205
65.4296875,5.916910179806494e-05
65.52734375,0.0002236780765262251
65.625,3.26729150379428e-05
65.72265625,0.00016563874793536549
65.8203125,0.00016563724991517604
65.91796875,0.00028527535148553857
66.015625,0.0001945963402194636
66.11328125,5.68372375744477e-05
66.2109375,0.00017106317813197754
66.30859375,0.0002760323488836848
66.40625,0.0002093662030686778
66.50390625,0.00013058347357745864
66.6015625,9.742368320015825e-05
66.69921875,8.819743148901959e-05
66.796875,2.412239175200266e-05
66.89453125,2.6235049710951645e-05
66.9921875,0.00010026912485223985
67.08984375,0.00011587014958041945
67.1875,0.00011274472842940123
67.28515625,0.00015574761644900949
67.3828125,0.00018943876195699413
67.48046875,0.00011053113205988948
67.578125,0.00015817207154179383
67.67578125,0.00019096615356846067
67.7734375,0.0002199058217843566
67.87109375,0.0002692295751010318
67.96875,8.662686406762791e-05
68.06640625,0.00011592331882890266
68.1640625,0.0001943616717028028
68.26171875,7.81454749371955e-05
68.359375,6.256233256614334e-05
68.45703125,7.266232134805711e-05
68.5546875,4.1946994856343066e-05
68.65234375,0.00023987335894193473
68.75,0.000119025306788089
68.84765625,1.4449130936822262e-05
68.9453125,0.00014172747022571426
69.04296875,0.00027418030500046613
69.140625,0.0001545168287947573
69.23828125,0.0002193950206343623
69.3359375,0.00010873071233087908
69.43359375,0.0001698461740138662
69.53125,0.00019560124304086594
69.62890625,0.00017836024291067028
69.7265625,9.842203640397596e-05
69.82421875,0.00015180064109479563
69.921875,0.0001596949179092936
70.01953125,1.8343009187433146e-05
70.1171875,0.000305800630207586
70.21484375,0.0001495936071517727
70.3125,0.00014608701317850073
70.41015625,0.00015917713850907613
70.5078125,8.638606836059446e-05
70.60546875,0.00018614879461688078
70.703125,0.00012160091049080973
70.80078125,0.0002548342628723984
70.8984375,0.00026834310978033206
70.99609375,0.00018831428813528533
71.09375,0.00017170930229039525
71.19140625,0.0003075171871023345
71.2890625,3.652021597366023e-05
71.38671875,0.00011184427533501224
71.484375,5.37125097756844e-05
71.58203125,0.00030884745787138816
71.6796875,0.0001691943304128515
71.77734375,3.0168555095636018e-05
71.875,7.387010980888433e-05
71.97265625,5.3137492249950534e-05
72.0703125,0.0001419129245671525
72.16796875,0.00014144886586446454
72.265625,5.799756360832901e-05
72.36328125,5.331204487100168e-05
72.4609375,0.00019108828448939936
72.55859375,0.00014184368839004622
72.65625,0.00012920407679476172
72.75390625,0.0002174342825614359
72.8515625,0.00018737908606661162
72.94921875,0.0001255769266114071
73.046875,0.00020677430241789358
73.14453125,0.00016334767638343843
73.2421875,5.825951670526515e-05
73.33984375,7.764384720624533e-05
73.4375,0.0001268676571983198
73.53515625,0.00021806538883731186
73.6328125,0.0001257518614824492
73.73046875,0.00017054804052619844
73.828125,4.27801714482985e-05
73.92578125,0.00014881987033890922
74.0234375,0.0002280566369250804
74.12109375,0.00014194420196620314
74.21875,3.6757164400983746e-05
74.31640625,0.00019342037851629188
74.4140625,7.287739633923636e-05
74.51171875,6.334843166606187e-05
74.609375,0.0001708043203837487
74.70703125,9.785583596474272e-05
74.8046875,8.933164132045454e-05
74.90234375,5.554584701327319e-05
75.0,0.00035134658164876826
75.09765625,8.447133871998576e-05
75.1953125,0.00021291940474451893
75.29296875,6.050067876925626e-05
75.390625,0.0001798690065091184
75.48828125,0.00010722492156957887
75.5859375,0.00012538027066588987
75.68359375,7.602211508933865e-05
75.78125,3.799354832569883e-05
75.87890625,0.00026335681537185447
75.9765625,0.0002104105843043024
76.07421875,0.0002392543877700532
76.171875,0.0003208658501466221
76.26953125,0.00013473076477164952
76.3671875,8.992758965420771e-05
76.46484375,0.0001963199842812858
76.5625,0.00019246092193143672
76.66015625,0.00028806423606293253
76.7578125,0.0001252005469469197
76.85546875,0.00010022599392165674
76.953125,9.774212212392286e-05
77.05078125,0.00017294619958941189
77.1484375,0.00018383967367310993
77.24609375,4.375470429915376e-05
77.34375,0.00023847264804842665
77.44140625,0.00020062745460679168
77.5390625,0.00011542008416520819
77.63671875,0.00017744314999115708
77.734375,0.0002264994083888295
77.83203125,0.00018003987780266034
77.9296875,0.0001625344773271266
78.02734375,0.00020058436480362778
78.125,6.376088946709012e-05
78.22265625,0.00011341154583894573
78.3203125,3.325167385303954e-05
78.41796875,0.00016697822912493387
78.515625,0.00015932260079806586
78.61328125,0.00013554278226543648
78.7109375,8.307660141619072e-05
78.80859375,0.00021017104867276568
78.90625,2.9991230675794402e-05
79.00390625,0.00012001369640193233
79.1015625,0.00019515312773465946
79.19921875,8.812817780429133e-05
79.296875,1.3258358465783192e-05
79.39453125,0.00021656291767939694
79.4921875,0.00034658693178810324
79.58984375,0.00010584358219686802
79.6875,0.0002716889408859146
79.78515625,0.00019583440183931202
79.8828125,7.878632201663815e-06
79.98046875,0.00033175823307596546
80.078125,8.402575500600674e-05
80.17578125,0.000148352514581591
80.2734375,0.00010629173491414045
80.37109375,0.00017933216877574198
80.46875,2.831026308274185e-05
80.56640625,0.00011357178159581543
80.6640625,0.00024765248831069955
80.76171875,6.0680630920027074e-05
80.859375,0.0001092195222377948
80.95703125,0.00017128249510181822
81.0546875,8.014172481360595e-05
81.15234375,5.410432852767875e-05
81.25,0.00028590302696879255
81.34765625,6.654881196496033e-05
81.4453125,0.00023696697009551422
81.54296875,3.7441426348831805e-05
81.640625,0.00030658629472455625
81.73828125,0.0001385937179134932
81.8359375,5.525686808786415e-05
81.93359375,0.00017948484842651927
82.03125,0.0001722302691930743
82.12890625,8.547198194185431e-05
82.2265625,0.00010794496384368863
82.32421875,0.00011161945564904519
82.421875,0.00012141967719163157
82.51953125,0.00015271400422654468
82.6171875,9.683694241921921e-05
82.71484375,7.147221361257462e-05
82.8125,0.00018295593647959369
82.91015625,0.0001972968734515903
83.0078125,0.00011304599320698271
83.10546875,2.7233011269906027e-05
83.203125,0.00016331795127635145
83.30078125,0.00011788038262193869
83.3984375,0.00011747243802314177
83.49609375,0.00021318286631045438
83.59375,0.00028166489835132653
83.69140625,9.157919005351183e-05
83.7890625,5.4438514912415355e-05
83.88671875,6.926409982033134e-05
83.984375,0.00010197553758454197
84.08203125,3.554485380779192e-05
84.1796875,0.0002337483803841029
84.27734375,0.00010961985051375053
84.375,0.00018943891686522664
84.47265625,0.00014239080476866525
84.5703125,8.565502628361491e-05
84.66796875,0.00018589338295323194
84.765625,2.2654414665620885e-05
84.86328125,0.00018858862753531771
84.9609375,9.259763554080905e-05
85.05859375,0.00012545753062598205
85.15625,0.00024146318945848354
85.25390625,5.98066084994443e-05
85.3515625,0.0001282231717270503
85.44921875,0.00015127927150247327
85.546875,0.0002126576539400276
85.64453125,0.0002806492621266346
85.7421875,9.780853048284458e-05
85.83984375,0.00016656203549328895
85.9375,0.00012317667803135078
86.03515625,4.184803871351728e-05
86.1328125,0.0001933758242753843
86.23046875,0.0002319118131653733
86.328125,6.1466661256559e-05
86.42578125,0.0001756286630093593
86.5234375,0.0002162849567094343
86.62109375,0.00016722404872637425
86.71875,7.77732174750102e-05
86.81640625,0.0001247153104465987
86.9140625,0.00027616900255949476
87.01171875,3.770233028209517e-05
87.109375,0.00018042611047143996
87.20703125,6.68727248209743e-05
87.3046875,0.00014512649451158989
87.40234375,0.00023406027998488512
87.5,4.8516767448678535e-05
87.59765625,0.00018360071565445265
87.6953125,0.00021999375968922682
87.79296875,0.00012974757313047777
87.890625,0.00010879090971635049
87.98828125,0.00011049138895705632
88.0859375,3.874927137655424e-05
88.18359375,6.691027009063305e-05
88.28125,0.00011567372117029612
88.37890625,0.0001571383347031258
88.4765625,8.069585304286933e-05
88.57421875,6.744291577109353e-05
88.671875,5.2729732781868025e-05
88.76953125,0.0001786765979169603
88.8671875,0.00025382542834885417
88.96484375,0.00013110936788555746
89.0625,0.0002596072661516414
89.16015625,2.1566148842016698e-05
89.2578125,0.00021081138981303578
89.35546875,0.00012306293661191
89.453125,0.00014069091484609483
89.55078125,9.351419513770049e-05
89.6484375,0.0001544813893148537
89.74609375,6.8791760629555e-05
89.84375,7.572926342607862e-05
89.94140625,0.0001202423454818614
90.0390625,0.0001675470806364654
90.13671875,0.00029958674166903653
90.234375,8.514164780570782e-05
90.33203125,4.4010224101038664e-05
90.4296875,9.211115219879712e-05
90.52734375,9.732788526145713e-05
90.625,3.4350551369872897e-05
90.72265625,0.0001769859058179149
90.8203125,7.679562832447216e-05
90.91796875,0.0003462020196362695
91.015625,0.00011160128575931331
91.11328125,7.305680970490688e-05
91.2109375,5.216463932188794e-05
91.30859375,9.349457643880986e-05
91.40625,8.684918973618157e-05
91.50390625,0.00022745548800168731
91.6015625,7.2426805053239e-05
91.69921875,9.580836368564233e-05
91.796875,0.00022328818210742493
91.89453125,8.623730369639103e-05
91.9921875,8.998028021109028e-05
92.08984375,0.00015616839912270696
92.1875,0.0003032560346338874
92.28515625,0.00012309402609563184
92.3828125,0.00020821191014089204
92.48046875,0.00014559415367025334
92.578125,0.00021446759395006055
92.67578125,0.00017904301776681134
92.7734375,0.00012576873199903396
92.87109375,0.0002541116837256583
92.96875,8.157293163446468e-05
93.06640625,0.00028885473110085
93.1640625,4.961084302280069e-05
93.26171875,0.00012006302472253959
93.359375,0.00016083988252421625
93.45703125,0.00018953969003763425
93.5546875,0.0002006768238430943
93.65234375,0.00019199033023930412
93.75,0.00015885671210310746
93.84765625,1.0752015816379634e-05
93.9453125,0.00020061817176019681
94.04296875,0.00024392648301226223
94.140625,0.00019334954344614575
94.23828125,9.516810934664687e-05
94.3359375,0.00012362407052242055
94.43359375,8.562087188784138e-05
94.53125,0.00011470596846202053
94.62890625,0.00014234322793938204
94.7265625,6.288528516270789e-05
94.82421875,0.00015646399029484675
94.921875,5.4972936349458515e-05
95.01953125,0.00016592000298589935
95.1171875,8.770116612811772e-05
95.21484375,0.00031301633337814936
95.3125,0.0001477044968012384
95.41015625,6.232320527824017e-05
95.5078125,0.00024156251817989446
95.60546875,6.078268749482994e-05
95.703125,0.00023238765514722816
95.80078125,0.00013975672949671097
95.8984375,7.152627691763729e-05
95.99609375,0.00020655920769011382
96.09375,0.00020704509535661474
96.19140625,0.0001527410960957961
96.2890625,0.00016011385219252488
96.38671875,0.00014671600226544694
96.484375,0.00010415652547941268
96.58203125,2.9520095650637098e-05
96.6796875,4.929827696885784e-05
96.77734375,8.63484669239135e-06
96.875,4.124800969264851e-05
96.97265625,4.840887269386135e-05
97.0703125,8.347032388928329e-05
97.16796875,0.00023715574830679073
97.265625,0.000139156615921862
97.36328125,4.158500329098715e-05
97.4609375,0.00012003427021919642
97.55859375,0.0001580967185068746
97.65625,0.00013188083099262507
97.75390625,4.498527274766114e-05
97.8515625,0.00011130548069421592
97.94921875,4.528598515550044e-05
98.046875,0.00013524007638179467
98.14453125,0.00017004199286112777
98.2421875,0.00017995357289013122
98.33984375,9.656103854329357e-05
98.4375,8.534756533925528e-05
98.53515625,0.000263129927572448
98.6328125,0.00012851260933887667
98.73046875,0.00014438570559178443
98.828125,0.00013058886890522441
98.92578125,5.608326731284081e-05
99.0234375,0.00011503233530621032
99.12109375,0.00021096506865682038
99.21875,0.00016748002505398866
99.31640625,4.208481419002931e-05
99.4140625,0.00015462944134568842
99.51171875,0.00017217686933449964
99.609375,0.00012390659485139545
99.70703125,5.830661294001796e-05
99.8046875,0.00011374381376993634
99.90234375,0.00011399811779212585
100.0,6.884403781601049e-05
100.09765625,0.00011102517098983715
100.1953125,0.00022875532839127918
100.29296875,7.364374595485813e-05
100.390625,0.00033307855772809266
100.48828125,0.00012302689596413514
100.5859375,0.0003406278879076652
100.68359375,0.0002465041269387743
100.78125,0.00016189445871353687
100.87890625,0.00023035899545200875
100.9765625,1.5072407515274557e-05
101.07421875,0.00017056291375506572
101.171875,0.00012489968420483774
101.26953125,2.479389048198423e-05
101.3671875,0.00011213921955963568
101.46484375,4.0621231331559746e-05
101.5625,5.8036836242619745e-05
101.66015625,0.0002396080577509138
101.7578125,0.00013153275447616808
101.85546875,0.00018831915849268065
101.953125,0.00011906970373541366
102.05078125,0.00014704255264418612
102.1484375,0.00022008942795639634
102.24609375,0.00013828302910270633
102.34375,5.536512694819914e-05
102.44140625,0.00017740239381752615
102.5390625,0.0002068934721319582
102.63671875,0.0002148721153268514
102.734375,8.106280573863932e-05
102.83203125,0.00022176498267189207
102.9296875,0.0002624994863728769
103.02734375,0.0001773089828593868
103.125,0.00010422243582808606
103.22265625,0.0002497800249968771
103.3203125,3.900473318808577e-05
103.41796875,0.00020860571423063015
103.515625,6.21741673570471e-05
103.61328125,0.0001972699164858189
103.7109375,0.00020722868522172322
103.80859375,0.00021644992328113252
103.90625,0.0001681975540518899
104.00390625,8.044268372996885e-06
104.1015625,0.00022470770452991332
104.19921875,0.00011069994536684627
104.296875,3.965118862834358e-05
104.39453125,0.00012143421234663027
104.4921875,0.00011995523875952537
104.58984375,0.00019241422162521597
104.6875,0.0001767279001791024
104.78515625,1.7631396332108443e-05
104.8828125,0.00018908244868952957
104.98046875,0.0001276258948599705
105.078125,7.1162543812078e-05
105.17578125,0.00033134096446803697
105.2734375,0.00013219599506515003
105.37109375,0.00014175241896751604
105.46875,0.00017797518370584852
105.56640625,0.0001419648885803839
105.6640625,6.934574444466544e-05
105.76171875,0.00012675421666965195
105.859375,7.441878886562245e-05
105.95703125,0.00012536805980619287
106.0546875,0.0001319907751950684
106.15234375,0.00020656835413280215
106.25,0.00017279739905162576
106.34765625,0.00016229246921321543
106.4453125,6.991050835379699e-05
106.54296875,0.00015403546519978368
106.640625,7.579658699837362e-05
106.73828125,6.656217422208758e-05
106.8359375,6.615967202567041e-05
106.93359375,2.5568649326567337e-05
107.03125,8.863315665031123e-05
107.12890625,0.00024059845153991366
107.2265625,8.155833046642236e-05
107.32421875,7.608183560040023e-05
107.421875,0.000186755086056504
107.51953125,9.815319047433611e-05
107.6171875,0.00011211733477135561
107.71484375,0.00018215992154275662
107.8125,7.625326291432172e-05
107.91015625,0.00010709139946156724
108.0078125,6.743515868649074e-05
108.10546875,0.0001199774902393217
108.203125,9.386074314738368e-05
108.30078125,0.00016388996905476838
108.3984375,2.7772281239357782e-05
108.49609375,0.00017769368627570652
108.59375,0.00012127299688452308
108.69140625,0.00010032901834921009
108.7890625,0.00016508733000999192
108.88671875,7.890361250204953e-05
108.984375,0.0002713252596238834
109.08203125,0.0002505479274994623
109.1796875,0.00012216438211174962
109.27734375,0.0001628499458506221
109.375,9.502113936892642e-05
109.47265625,0.00014732667006117409
109.5703125,0.00023447393704192495
109.66796875,0.0002145238236552112
109.765625,0.0002942063281181468
109.86328125,0.00015144143942413948
109.9609375,8.420534868866652e-05
110.05859375,2.3709189802436473e-05
110.15625,0.0003363024303225754
110.25390625,0.00015893224658347825
110.3515625,0.00022067875970293498
110.44921875,0.00012291700485782462
110.546875,0.00013385002011608043
110.64453125,0.00010996602915527784
110.7421875,0.00023096186464148882
110.83984375,0.00011613591293853235
110.9375,0.0002663167234662512
111.03515625,0.00030717958386161805
111.1328125,0.0002688834539519729
111.23046875,6.964189538004748e-05
111.328125,0.00022619192489692632
111.42578125,0.0001956943080551671
111.5234375,0.00015001096204765458
111.62109375,0.00011601515018739775
111.71875,0.0002515605485372536
111.81640625,0.00010964264129476839
111.9140625,0.0003016994127550914
112.01171875,3.478415638514974e-06
112.109375,0.0001361729362274084
112.20703125,0.00015195989739300841
112.3046875,8.621298595524228e-05
112.40234375,9.450475946529457e-05
112.5,0.00012669476915905446
112.59765625,0.00013554216658155874
112.6953125,0.0001503089907207508
112.79296875,1.240790887469489e-05
112.890625,9.367234972736035e-05
112.98828125,0.00027674011291014855
113.0859375,0.00010329249709000791
113.18359375,0.00022817878171324947
113.28125,0.00015430461911043882
113.37890625,0.00016486494546343934
113.4765625,0.0001627645972965508
113.57421875,2.9421544753739654e-05
113.671875,7.568787205498898e-05
113.76953125,0.00022169106202414037
113.8671875,0.00022596739517529072
113.96484375,4.194603472810262e-05
114.0625,7.663668274325961e-05
114.16015625,0.00014555444239822588
114.2578125,3.6971701317417e-05
114.35546875,2.572388106513912e-05
114.453125,0.00021792966227136284
114.55078125,0.00022564297252452962
114.6484375,0.00017632434593063996
114.74609375,8.027773895138271e-05
114.84375,0.00010740034669305123
114.94140625,6.669686241004428e-05
115.0390625,0.00017745821211665206
115.13671875,9.366125986753225e-05
115.234375,0.00012666188477543307
115.33203125,0.00011750135421597815
115.4296875,0.0003061548016228898
115.52734375,0.00022907596574065013
115.625,0.00013718817765827983
115.72265625,5.30058228738138e-05
115.8203125,0.00016975657241461602
115.91796875,0.00017411133800662474
116.015625,0.0002235976125305051
116.11328125,0.0002065507881502974
116.2109375,0.00015451281774979625
116.30859375,0.0001330752335250012
116.40625,0.00018347710679881104
116.50390625,4.909586846796655e-05
116.6015625,0.00017802820845003127
116.69921875,8.284763086852616e-05
116.796875,0.00016576473997487304
116.89453125,0.0003271338736921417
116.9921875,0.0001566693192887212
117.08984375,5.792374479600221e-05
117.1875,0.00010836983962720364
117.28515625,0.0002536043705777166
117.3828125,4.6550365338565484e-05
117.48046875,0.00012983981815836373
117.578125,6.934468984992472e-05
117.67578125,0.00012014078458788447
117.7734375,5.091131471601825e-05
117.87109375,0.00015088284195532292
117.96875,4.530893802068535e-06
118.06640625,0.000206977110719015
118.1640625,6.975379885550346e-05
118.26171875,9.158296464279912e-05
118.359375,7.92437090577371e-05
118.45703125,7.414018939993446e-05
118.5546875,0.0003105762919871478
118.65234375,0.0001571461907949584
118.75,0.00017458640494895069
118.84765625,0.00015226098348108973
118.9453125,6.999416841265612e-05
119.04296875,0.00016171965238590675
119.140625,0.00021360185474786234
119.23828125,0.00020353014496401266
119.3359375,0.00011860867071325581
119.43359375,6.0222333151796515e-05
119.53125,0.0002069629902832614
119.62890625,0.00010904360855394692
119.7265625,8.351500672404212e-05
119.82421875,0.00011918965356763495
119.921875,4.1054066249900196e-05
120.01953125,0.00020389261664677334
120.1171875,0.00023531850528968042
120.21484375,0.00013648381373982893
120.3125,0.000146579122328149
120.41015625,0.0002168747888193822
120.5078125,8.144002527823467e-05
120.60546875,2.4500156371160807e-05
120.703125,0.00010603307984658383
120.80078125,2.886068605662827e-05
120.8984375,0.00021520380571160366
120.99609375,6.419503502094931e-05
121.09375,7.858286484054625e-05
121.19140625,0.00023748524268338454
121.2890625,0.00020003286636631406
121.38671875,0.0001994970884713091
121.484375,6.860075599504676e-05
121.58203125,0.00023090171420937596
121.6796875,6.155785886040542e-05
121.77734375,0.00010658170105796381
121.875,0.0001843737538058535
121.97265625,0.00010699951164674596
122.0703125,2.5835055383235957e-05
122.16796875,1.060457055171783e-05
122.265625,0.00033517292464398357
122.36328125,0.00010537801977879027
122.4609375,5.52231387152881e-05
122.55859375,1.9722459401987265e-05
122.65625,0.00014437670477338295
122.75390625,7.88867018207711e-05
122.8515625,0.00012899179576241358
122.94921875,0.00013774235162690752
123.046875,0.00022965542393187013
123.14453125,3.2679416617910604e-05
123.2421875,0.00014755185273886408
123.33984375,4.26071399799766e-05
123.4375,3.516008763024059e-05
123.53515625,0.00010658731417481416
123.6328125,0.000193745312574837
123.73046875,4.1327307657634766e-05
123.828125,4.1910850438363974e-05
123.92578125,3.476476491429933e-05
124.0234375,0.0001291589426029623
124.12109375,0.00029469254537002317
124.21875,0.0001378398789455458
124.31640625,0.0002106089611831489
124.4140625,0.00018883256847390282
124.51171875,7.017319028899303e-05
124.609375,0.0001968136912030543
124.70703125,0.0002912616824038289
124.8046875,0.00010620263793961426
124.90234375,0.00023593336430988347
125.0,8.691506121845171e-05
125.09765625,8.707640799955265e-05
125.1953125,0.00024087126148752708
125.29296875,0.00017912488566319604
125.390625,0.00021374995799778307
125.48828125,0.00026431238230463776
125.5859375,0.00019891322147341662
125.68359375,0.00019377962253659995
125.78125,1.8729440414357984e-05
125.87890625,0.00015641756728543917
125.9765625,0.00019085959783771784
126.07421875,0.00012521541472896517
126.171875,9.182487001644792e-05
126.26953125,3.116771183607245e-05
126.3671875,0.00019577595598770797
126.46484375,5.54725577389766e-05
126.5625,8.012863243234265e-05
126.66015625,0.00019277609118720175
126.7578125,0.0002809913730824124
126.85546875,0.00026332248913815974
126.953125,0.00019151376775708123
127.05078125,0.00011906876255275695
127.1484375,0.00018953439694010564
127.24609375,0.00019111228691142442
127.34375,0.00014188307785855062
127.44140625,0.00010030083451293194
127.5390625,0.00016309171736154937
127.63671875,0.0004146631469857106
127.734375,0.0001582759834668695
127.83203125,0.00010373011680706009
127.9296875,0.0001707865284793495
128.02734375,9.484274661385352e-05
128.125,0.00010158690053753595
128.22265625,0.0001280179584146686
128.3203125,0.0001330206227841184
128.41796875,0.00020932571732803368
128.515625,0.0001260505193034668
128.61328125,7.330240342389703e-05
128.7109375,0.0002009677943176995
128.80859375,9.099622723003815e-05
128.90625,0.00018409451560734704
129.00390625,0.0001941843765499618
129.1015625,0.00018126787461558274
129.19921875,0.00012496949009412777
129.296875,4.184853293147194e-05
129.39453125,0.00018716701703562854
129.4921875,8.748808284416267e-05
129.58984375,5.52400759104316e-05
129.6875,0.0001497636167454615
129.78515625,0.00016645215941294862
129.8828125,0.00013033347381719444
129.98046875,6.553254498854474e-05
130.078125,4.755622235228518e-05
130.17578125,0.0001436810515202045
130.2734375,0.00018765401674856859
130.37109375,0.00021693664208412517
130.46875,0.0002318339644852723
130.56640625,0.00018745815071234668
130.6640625,0.00010441627706699421
130.76171875,0.00018457145323343908
130.859375,0.0002856303172784331
130.95703125,0.00018046216933679062
131.0546875,0.0001366660316278224
131.15234375,0.00024686935092729404
131.25,0.000123138065776574
131.34765625,0.00019169817735648293
131.4453125,0.0002722261940052844
131.54296875,0.00015554520036204997
131.640625,3.4584753369289024e-05
131.73828125,0.00019747585680627788
131.8359375,0.00025156345782083447
131.93359375,9.670840256548329e-05
132.03125,8.919662346888441e-05
132.12890625,0.00023293400608887096
132.2265625,5.8921083003688836e-05
132.32421875,0.0001150850178553607
132.421875,0.000126000317422472
132.51953125,0.0002536544678522647
132.6171875,2.3497217651997962e-05
132.71484375,4.5557970101371756e-05
132.8125,0.0002248965783665628
132.91015625,8.978523220531175e-05
133.0078125,0.00015573181687046395
133.10546875,0.0001706724832366101
133.203125,0.0001179909564557545
133.30078125,7.959670185475056e-05
133.3984375,0.00011149941153491335
133.49609375,8.32455631376814e-05
133.59375,0.0001820216026416226
133.69140625,8.695996411998828e-05
133.7890625,0.0001741340576954608
133.88671875,0.00018179773583597322
133.984375,0.0003155742655155875
134.08203125,0.00013409881060313605
134.1796875,0.0003314929996289375
134.27734375,0.00016568911134011267
134.375,7.656190053460384e-05
134.47265625,7.229285095059226e-05
134.5703125,0.00024766466413478176
134.66796875,9.509177390150874e-05
134.765625,3.0752524865551067e-06
134.86328125,9.884405914857629e-05
134.9609375,1.3572799106618338e-05
135.05859375,0.00015831960582457418
135.15625,8.78367850886399e-05
135.25390625,0.00015853807503769107
135.3515625,7.585111289272898e-05
135.44921875,0.00012310520717167295
135.546875,0.00021379947876085716
135.64453125,5.1785158987273785e-05
135.7421875,0.00017213289542126564
135.83984375,0.00014704449487473758
135.9375,0.0001821575071586512
136.03515625,0.0002834140927407491
136.1328125,0.00016753256060682715
136.23046875,0.0001698076656376126
136.328125,0.000161153888555193
136.42578125,0.00017562917337196393
136.5234375,9.190077802568386e-05
136.62109375,0.00011568290835510577
136.71875,0.0001724859347713814
136.81640625,6.40550086184377e-05
136.9140625,1.650458324298533e-05
137.01171875,0.00020080210537502927
137.109375,8.022677270470987e-05
137.20703125,0.0001147046271346404
137.3046875,0.00022590984540430626
137.40234375,0.00014343077230339672
137.5,3.00038176899649e-05
137.59765625,9.312738038881146e-05
137.6953125,0.0001879926066456757
137.79296875,0.00020262573480499358
137.890625,6.486961844666272e-05
137.98828125,0.00018704869188311993
138.0859375,0.0002296997984187232
138.18359375,3.5767424874545666e-05
138.28125,0.00017205799364716708
138.37890625,0.00014009080219125924
138.4765625,0.0002084139348539087
138.57421875,0.00015234497163818986
138.671875,0.00010766883258394401
138.76953125,0.0002999108025078045
138.8671875,0.00010528454251509832
138.96484375,0.00012535794724041172
139.0625,0.00012444601939481614
139.16015625,6.689303136989956e-05
139.2578125,0.00011395645471493368
139.35546875,0.00015264225644187832
139.453125,0.00025979587403886223
139.55078125,0.00015778807901321574
139.6484375,5.132601588224292e-06
139.74609375,0.00012965870160770067
139.84375,9.398328235191595e-05
139.94140625,0.00013355954739094288
140.0390625,0.00020574995679166426
140.13671875,0.0001173051496591041
140.234375,0.0002541428083549378
140.33203125,0.00017488992447157374
140.4296875,0.000172347803266445
140.52734375,9.152692566871521e-05
140.625,0.0001095960896825654
140.72265625,0.0002071460337540413
140.8203125,5.156020238882729e-05
140.91796875,0.00011853996875361502
141.015625,7.518750193454011e-05
141.11328125,0.00010474700532589782
141.2109375,0.0001524665325498415
141.30859375,0.00017715136399213904
141.40625,0.00011912439202675433
141.50390625,2.254317951516714e-05
141.6015625,0.00019470983868947838
141.69921875,7.33741457698553e-05
141.796875,6.471550847913573e-05
141.89453125,0.0003086200279067256
141.9921875,0.00015754837518857785
142.08984375,0.00022003917769827883
142.1875,0.0002102076487417564
142.28515625,0.00019208332352018786
142.3828125,0.00010797896171128098
142.48046875,7.725050918799316e-05
142.578125,0.00011828125823319327
142.67578125,0.0001886375319849513
142.7734375,0.00010596506094951587
142.87109375,0.0001204018432799963
142.96875,0.00019703687966939488
143.06640625,5.8648518234564316e-05
143.1640625,0.00022900861135800228
143.26171875,0.00013742819753705362
143.359375,0.00012312089709876965
143.45703125,0.00020163356674347062
143.5546875,0.00018017081656494257
143.65234375,7.686209202959312e-05
143.75,8.282364334483966e-05
143.84765625,8.354719247896878e-05
143.9453125,6.634950990227483e-05
144.04296875,0.0001984808541694428
144.140625,7.852452958252103e-05
144.23828125,0.00011322319626884305
144.3359375,0.0001377996327905597
144.43359375,0.00016105542455412234
144.53125,3.999963584220406e-05
144.62890625,5.530991766997352e-05
144.7265625,0.00016593512936317607
144.82421875,8.893299253982841e-05
144.921875,0.0001677007234420248
145.01953125,9.60259262252903e-05
145.1171875,0.0001302782090086759
145.21484375,0.00013470206081389878
145.3125,0.00013010496854831512
145.41015625,5.080132027327773e-05
145.5078125,0.0001808227563748795
145.60546875,6.86532149734437e-05
145.703125,2.635316849236197e-05
145.80078125,0.0002022995208910964
145.8984375,0.00014165623017853006
145.99609375,0.00014099582175671046
146.09375,6.890038199287355e-05
146.19140625,8.197772548526139e-05
146.2890625,3.4278863652520633e-05
146.38671875,0.00010466590592377399
146.484375,0.00011920289480802313
146.58203125,6.146501322107203e-05
146.6796875,0.00013512183447599005
146.77734375,8.006941662140079e-05
146.875,0.00012459223656889672
146.97265625,0.00010682616414263051
147.0703125,0.00019618689843191388
147.16796875,0.0001293544088346415
147.265625,0.00013991289875382506
147.36328125,5.0718903468469896e-05
147.4609375,0.00027007335456419833
147.55859375,0.0003121574168051789
147.65625,2.0125351459034745e-05
147.75390625,9.011085680900671e-05
147.8515625,7.378797964499051e-05
147.94921875,0.0003164783007742674
148.046875,7.463734283150129e-05
148.14453125,0.00013725428399145357
148.2421875,0.00029292426799211235
148.33984375,0.00013761431546557086
148.4375,0.00011804085842605885
148.53515625,8.725077078275183e-05
148.6328125,8.701430466638102e-05
148.73046875,0.00011264130674800191
148.828125,0.00021405165205544516
148.92578125,0.00014154884285703
149.0234375,4.412136519206255e-05
149.12109375,8.944955965100728e-05
149.21875,7.25534880325485e-05
149.31640625,7.021381473338247e-05
149.4140625,6.612998047606915e-05
149.51171875,0.00014554515501552536
149.609375,0.0001262551421127438
149.70703125,9.908766981691436e-05
149.8046875,0.00011387258986486231
149.90234375,0.00010974093838084128
150.0,9.20333559270818e-05
150.09765625,0.00010721138221192955
150.1953125,0.00014190842502757422
150.29296875,2.117696507750477e-05
150.390625,8.621329487505824e-06
150.48828125,0.00027827692779189484
150.5859375,2.2265257168327748e-05
150.68359375,0.00023920680327115158
150.78125,0.00012415537563350158
150.87890625,0.00028547575238698517
150.9765625,0.00024608625640539877
151.07421875,5.4839850735824473e-05
151.171875,0.00024225509188795753
151.26953125,2.7072794580964933e-05
151.3671875,0.00017794191150513391
151.46484375,4.542623976479727e-05
151.5625,0.00013112542465514455
151.66015625,8.26330909103978e-05
151.7578125,3.366922369529928e-05
151.85546875,4.508708182315407e-05
151.953125,0.0001666903168335487
152.05078125,0.00013461923466981444
152.1484375,6.680569716480337e-05
152.24609375,0.0002648105542384098
152.34375,0.00011059451438727983
152.44140625,6.706021679137261e-05
152.5390625,2.01581623230185e-05
152.63671875,0.00017010878327631195
152.734375,0.0001682526161184175
152.83203125,0.0001465833190707061
152.9296875,7.33550256099871e-05
153.02734375,3.0378886884008077e-05
153.125,0.00011748945619251452
153.22265625,8.940575046725546e-06
153.3203125,9.162119622483836e-05
153.41796875,0.00013343549118307425
153.515625,0.00013009038212599458
153.61328125,0.00012177309142427114
153.7109375,0.00010194893818360176
153.80859375,0.00013098343931523574
153.90625,0.0002525776375439034
154.00390625,7.320881938236416e-05
154.1015625,9.568985733756707e-05
154.19921875,5.102282708717731e-05
154.296875,0.00010493533858075454
154.39453125,4.7056094337001296e-05
154.4921875,3.300393233612156e-05
154.58984375,6.0959386163677394e-05
154.6875,0.00017495626312122756
154.78515625,0.00017314803091213996
154.8828125,0.0001261600859430928
154.98046875,2.8969783687133363e-05
155.078125,4.0928014129469274e-05
155.17578125,0.00027730959410405225
155.2734375,5.152208299673937e-05
155.37109375,0.00016480608698276402
155.46875,0.00012692878664728526
155.56640625,6.0538850630316045e-05
155.6640625,0.0002355296762952346
155.76171875,8.269645072335292e-05
155.859375,0.00013002137966553135
155.95703125,4.4664400575469636e-05
156.0546875,0.0001806674876809508
156.15234375,0.000160392088585592
156.25,0.0001843036038325723
156.34765625,0.0002121238344117456
156.4453125,5.6187516004947324e-05
156.54296875,0.00012186351669365528
156.640625,5.429167623198825e-05
156.73828125,0.0001211160043973888
156.8359375,9.355128840222797e-05
156.93359375,0.00013976913792896885
157.03125,0.00011896422826154974
157.12890625,6.606574675633625e-05
157.2265625,0.00029224412543482034
157.32421875,0.00011411520215181696
157.421875,0.00011475462053143718
157.51953125,7.963670245403531e-05
157.6171875,0.00011030349768750415
157.71484375,7.742530229986351e-05
157.8125,0.00011195167136105979
157.91015625,0.0002004009891607328
158.0078125,7.145251055819496e-05
158.10546875,0.00011731394422110464
158.203125,9.331708581026107e-05
158.30078125,0.00017452326048670447
158.3984375,0.00012965078310773757
158.49609375,0.0001304917734845035
158.59375,0.00017766856784182203
158.69140625,7.320746113039252e-06
158.7890625,0.00013485444314390675
158.88671875,0.00011384297107021942
158.984375,0.00016207556943509876
159.08203125,9.623361471396666e-05
159.1796875,0.0001082924135086575
159.27734375,2.7504581526632864e-05
159.375,0.00017132904739707957
159.47265625,0.000140924111634019
159.5703125,7.889326489804064e-05
159.66796875,0.00025205276163532594
159.765625,0.0001689419437684924
159.86328125,0.00021430399399787926
159.9609375,6.82562254696634e-05
160.05859375,5.5954508134306855e-05
160.15625,9.363250739851782e-05
160.25390625,0.00022887479630113606
160.3515625,0.00014688548639871205
160.44921875,0.00013508076027303394
160.546875,0.00022652953364634714
160.64453125,0.00015279926448169047
160.7421875,0.00021990487082045883
160.83984375,0.0002021321485227188
160.9375,0.00010188181065187818
161.03515625,0.0001870608838723546
161.1328125,9.285058273993547e-05
161.23046875,6.428637617416482e-05
161.328125,0.00012360914257128968
161.42578125,6.262654159273234e-05
161.5234375,0.00013199758633643867
161.62109375,0.0001285717980436421
161.71875,5.36099329805323e-05
161.81640625,0.00016592732480472826
161.9140625,0.00010578542121294414
162.01171875,6.384157755735371e-05
162.109375,7.61197376511912e-05
162.20703125,2.5559955548233574e-05
162.3046875,0.0001539662376926959
162.40234375,0.0002274296352794224
162.5,9.613832200781217e-05
162.59765625,1.8921199413075886e-05
162.6953125,5.283667465570631e-05
162.79296875,0.00018020172927454018
162.890625,0.00015034265841652337
162.98828125,0.00012311570195827764
163.0859375,0.0001419892685854256
163.18359375,6.891230905908459e-05
163.28125,0.00012664224353154798
163.37890625,0.00011892586607573381
163.4765625,0.00013174730735650948
163.57421875,0.0001447439969995156
163.671875,9.024899980871663e-05
163.76953125,0.00020603664270973517
163.8671875,0.00015121542149478987
163.96484375,0.0001838957064403112
164.0625,4.94513303160209e-05
164.16015625,9.15806141881348e-05
164.2578125,0.0003150439562161845
164.35546875,0.00012859804628113033
164.453125,0.00014582401715498673
164.55078125,0.0001887387311785205
164.6484375,5.4964882950469206e-05
164.74609375,0.00013589890525394523
164.84375,0.00017957047155528448
164.94140625,6.171579220904716e-05
165.0390625,0.00019719273479463966
165.13671875,9.23217300659139e-05
165.234375,0.00016901360426271056
165.33203125,5.9143869324481486e-05
165.4296875,0.00010350928998214863
165.52734375,0.00019007642616222686
165.625,0.00012604009152403968
165.72265625,0.00014560037685221674
165.8203125,2.2778560676954765e-05
165.91796875,0.0001042794125876604
166.015625,0.00013293899768137207
166.11328125,0.00011955624025540606
166.2109375,0.00014644726530400122
166.30859375,5.618436768934223e-05
166.40625,4.755482803146788e-05
166.50390625,0.00010243537186100881
166.6015625,0.00019106190237070178
166.69921875,0.00013367826683075603
166.796875,1.213943126239065e-05
166.89453125,0.0001175137801758517
166.9921875,0.00013737772461851623
167.08984375,0.00019076464088363875
167.1875,0.00019227599824201368
167.28515625,0.00022188023886846907
167.3828125,0.00022244514668870653
167.48046875,7.58530712566773e-05
167.578125,0.00012064152305860327
167.67578125,8.284018511745976e-05
167.7734375,2.873039380967113e-05
167.87109375,0.00019083934810805767
167.96875,0.0001599538259201852
168.06640625,0.00014952973028516833
168.1640625,6.577761497032966e-05
168.26171875,8.458641825391741e-05
168.359375,0.00019986132979800554
168.45703125,0.00013182897552692856
168.5546875,6.685233167600139e-05
168.65234375,0.0001402417984357758
168.75,8.401051393924441e-05
168.84765625,0.00015414175946123557
168.9453125,0.00017461932359558383
169.04296875,0.00030037801773578703
169.140625,0.00011166029372608092
169.23828125,0.00020841882272130204
169.3359375,8.349549973246298e-05
169.43359375,0.00011420121508535784
169.53125,7.485751920061873e-05
169.62890625,2.7698345587252237e-05
169.7265625,6.727162422383662e-05
169.82421875,0.0001982905168015693
169.921875,0.0001233805939876315
170.01953125,0.0001202227795661904
170.1171875,0.0001287720423634661
170.21484375,9.429910676919087e-05
170.3125,0.00013738121816773527
170.41015625,0.00019922022186699923
170.5078125,6.474500704536443e-05
170.60546875,6.320401419271005e-05
170.703125,0.00012659265771027003
170.80078125,0.00013131233112907955
170.8984375,0.00010240036545782939
170.99609375,0.00011055743109032733
171.09375,0.00012607903603267502
171.19140625,0.00014228626457936686
171.2890625,2.6407008876515967e-05
171.38671875,0.0001669386815567763
171.484375,0.00016580756908304893
171.58203125,0.0001903763184622298
171.6796875,7.158066537343024e-05
171.77734375,0.00023892493907596356
171.875,0.00019787652041987604
171.97265625,6.960356774964266e-05
172.0703125,6.923727434112389e-05
172.16796875,4.549123631760347e-05
172.265625,8.756269504820814e-05
172.36328125,0.0001320494679828436
172.4609375,0.00012375223444048412
172.55859375,4.892858531403905e-05
172.65625,0.00015453950202558935
172.75390625,2.2011636733872604e-05
172.8515625,5.660379358964037e-05
172.94921875,1.8266304413109823e-05
173.046875,0.0002122724238522917
173.14453125,0.00010297362437780085
173.2421875,5.6595935434852025e-05
173.33984375,4.207169849912144e-05
173.4375,0.00012867707312669085
173.53515625,8.598888957732302e-05
173.6328125,0.00010445799062087493
173.73046875,0.00017964164556868854
173.828125,0.0002768114494667477
173.92578125,0.00018192013989596031
174.0234375,0.00017213991587977908
174.12109375,0.00024552193436281976
174.21875,0.0001589671857667768
174.31640625,0.00012444740173953318
174.4140625,0.0001424701733149677
174.51171875,9.410263150057997e-05
174.609375,0.0001369416513978726
174.70703125,0.00013146254205245275
174.8046875,5.394226463296969e-05
174.90234375,8.489598279951211e-05
175.0,0.0002837066620252078
175.09765625,2.5830438314289796e-05
175.1953125,0.00013236681665670605
175.29296875,0.0001171104699002816
175.390625,7.284545941720584e-05
175.48828125,0.0001481172813759098
175.5859375,8.386048755495568e-05
175.68359375,0.00010070702448254443
175.78125,5.196192780460473e-05
175.87890625,5.948869500893245e-05
175.9765625,0.00016326371048976316
176.07421875,0.00018096400435686576
176.171875,0.00014608005376503063
176.26953125,0.00018958029968379735
176.3671875,0.0001494504892657917
176.46484375,0.00010902270109728457
176.5625,0.00014540164310942398
176.66015625,0.00013915824516262657
176.7578125,9.095170280460254e-05
176.85546875,8.705407448137536e-05
176.953125,0.0002671484343808103
177.05078125,0.00011670554993014565
177.1484375,0.00010733024641225119
177.24609375,6.397342952156037e-05
177.34375,3.592024934438264e-05
177.44140625,4.58727062255476e-05
177.5390625,0.00012744642005699488
177.63671875,0.00013688327697018645
177.734375,2.179818535263676e-05
177.83203125,8.930183727187831e-05
177.9296875,2.5912942580328878e-05
178.02734375,0.00012271445998029743
178.125,4.425812252507877e-05
178.22265625,0.00021165795894141377
178.3203125,0.00011966713514415108
178.41796875,3.9719623770720396e-05
178.515625,0.00013737283721836175
178.61328125,0.00010872121109327287
178.7109375,2.0532291737747183e-05
178.80859375,3.9585932398024425e-05
178.90625,1.961819927547481e-05
179.00390625,6.522601098033576e-05
179.1015625,0.00012384936907078374
179.19921875,0.00012307193189745996
179.296875,0.0001765026355399281
179.39453125,4.488817827296123e-05
179.4921875,9.891243824184699e-05
179.58984375,0.00011442176696801614
179.6875,0.00012325474445509658
179.78515625,0.00015819749642498597
179.8828125,3.1717329800432286e-05
179.98046875,6.875682399301038e-05
180.078125,7.591008751517188e-05
180.17578125,8.835647637475984e-05
180.2734375,5.763832489442044e-05
180.37109375,0.00014096078291993562
180.46875,9.847618164468096e-05
180.56640625,0.00029535228310512737
180.6640625,8.441025996195532e-05
180.76171875,0.00016855236950749652
180.859375,0.00013189712210917617
180.95703125,6.522243883630362e-05
181.0546875,0.00010371310948856425
181.15234375,0.00016776409081058246
181.25,0.00012779776193975776
181.34765625,0.0001947597632486732
181.4453125,5.823849949199307e-05
181.54296875,0.0002122134874489865
181.640625,5.8570842369137446e-05
181.73828125,0.00016300507310140593
181.8359375,8.379661635698002e-05
181.93359375,0.00025000987977360595
182.03125,5.9618123300624875e-05
182.12890625,0.00013174313852415027
182.2265625,0.00014399882112003956
182.32421875,6.262736490494999e-05
182.421875,0.0001380557593739503
182.51953125,0.00014610286049695205
182.6171875,0.00011472025325575155
182.71484375,0.0001024592254982032
182.8125,9.002143345884182e-05
182.91015625,6.788159309398177e-05
183.0078125,6.089255868128125e-05
183.10546875,0.00010618172640636673
183.203125,0.00013312710634188005
183.30078125,4.1454556950898195e-05
183.3984375,0.00023471624917448592
183.49609375,6.33980222529648e-05
183.59375,0.0001379337117916531
183.69140625,8.861833328008955e-05
183.7890625,4.0151197496081476e-05
183.88671875,8.696282731295977e-05
183.984375,4.719904173566911e-05
184.08203125,8.740124713530712e-05
184.1796875,0.00019619312550432102
184.27734375,7.047989277798518e-05
184.375,0.00013327301765167913
184.47265625,3.628483996843113e-05
184.5703125,0.00010587519578892152
184.66796875,0.00016122500326630647
184.765625,6.25082580296023e-05
184.86328125,9.005279041247002e-05
184.9609375,0.00012029938789663867
185.05859375,0.00014715298109311493
185.15625,0.00010024879739639493
185.25390625,8.346863659319665e-05
185.3515625,5.606549419394507e-05
185.44921875,5.5766362663734155e-05
185.546875,0.0001745527939341746
185.64453125,0.00016741106741487174
185.7421875,9.238618692317173e-05
185.83984375,1.1717518949717029e-05
185.9375,5.571498860506015e-05
186.03515625,8.992371187205528e-05
186.1328125,0.0001667727047308069
186.23046875,0.00011170893920096352
186.328125,3.989252178456607e-05
186.42578125,0.00021336572397533072
186.5234375,6.601522828523922e-05
186.62109375,9.161451697404436e-05
186.71875,0.00017144326077264368
186.81640625,7.31198299798179e-05
186.9140625,0.00015993795091843663
187.01171875,9.395446506883146e-05
187.109375,0.00016015291151051563
187.20703125,0.00016545496064794278
187.3046875,0.000216432239347769
187.40234375,0.0001758171909771237
187.5,0.000121334536910261
187.59765625,9.683310410251925e-05
187.6953125,0.0002102552786892352
187.79296875,0.00018234631126342184
187.890625,3.451655613889039e-05
187.98828125,0.0001634584264175777
188.0859375,9.987140290620386e-05
188.18359375,0.00010588887789575606
188.28125,0.00020348281936879376
188.37890625,0.00020838868130554006
188.4765625,8.438490410346859e-05
188.57421875,0.00019949928496757315
188.671875,0.0001099899210674333
188.76953125,9.401012986986554e-05
188.8671875,0.0002518329330087416
188.96484375,9.60837005851482e-05
189.0625,6.468169997413028e-05
189.16015625,0.00018970541193289223
189.2578125,5.342779210460144e-05
189.35546875,5.345275617852615e-05
189.453125,7.814492733993104e-05
189.55078125,9.467236524964385e-05
189.6484375,1.924852396314259e-05
189.74609375,8.884619091814827e-05
189.84375,2.3890303167964376e-05
189.94140625,9.799560961605384e-05
190.0390625,0.00014876276143163116
190.13671875,0.00024327997296303192
190.234375,6.456148813415925e-05
190.33203125,1.1827014748490156e-05
190.4296875,0.0001495974639605192
190.52734375,7.165926385435758e-05
190.625,0.00012017109695587852
190.72265625,8.423521411382069e-05
190.8203125,8.76885553762485e-05
190.91796875,9.712294227276345e-05
191.015625,2.2866541713748766e-05
191.11328125,3.348768885481333e-05
191.2109375,9.09796705430768e-05
191.30859375,0.00016235977210131796
191.40625,0.00011968500904318417
191.50390625,7.190825286221676e-05
191.6015625,0.00010506694058062913
191.69921875,9.880989424375272e-05
191.796875,7.813268674347798e-05
191.89453125,3.871928307767269e-05
191.9921875,0.00011445144569313072
192.08984375,6.067343769263315e-05
192.1875,0.00020751623799835506
192.28515625,0.00011878610622252357
192.3828125,0.00014107728359142156
192.48046875,0.0001680103689207005
192.578125,0.00018333828514549306
192.67578125,5.7894374170949675e-05
192.7734375,0.0001258824478933412
192.87109375,8.378660141086521e-05
192.96875,4.3749651966686846e-05
193.06640625,0.00013966750223520327
193.1640625,7.013148691738236e-05
193.26171875,9.18197650707792e-05
193.359375,1.3921894637976876e-05
193.45703125,4.687319821841137e-05
193.5546875,0.00019103370976920035
193.65234375,3.725495748126074e-05
193.75,0.00013704259183188372
193.84765625,0.00018684789893721706
193.9453125,0.00015671326392676082
194.04296875,0.0001647277611480947
194.140625,8.325824309037904e-05
194.23828125,0.0001246563322582016
194.3359375,0.00012177746637448326
194.43359375,2.4226557165935403e-05
194.53125,5.747001508923859e-05
194.62890625,0.00012486389815167888
194.7265625,1.0271532976594259e-05
194.82421875,8.887098203793793e-05
194.921875,8.042299370678561e-05
195.01953125,5.26381543597792e-05
195.1171875,0.00021436064908936662
195.21484375,8.677006946993878e-05
195.3125,4.237972257977249e-05
195.41015625,0.0001082098495653756
195.5078125,9.113383792608854e-05
195.60546875,0.00014952978506548118
195.703125,0.00013720563854516165
195.80078125,7.466678554382092e-05
195.8984375,0.00022661505517615656
195.99609375,5.285296914003566e-05
196.09375,0.00013752703770750446
196.19140625,9.874912770294314e-05
196.2890625,0.0001982776435556989
196.38671875,8.652478658162121e-05
196.484375,0.00024437199239881006
196.58203125,0.00014233074547740163
196.6796875,6.0930946054959796e-05
196.77734375,6.169273824960751e-05
196.875,0.00014852491625443832
196.97265625,0.00011271621203012985
197.0703125,0.00017927141523989417
197.16796875,0.00013379836119544275
197.265625,7.961971202275771e-05
197.36328125,0.0002022836574295989
197.4609375,0.00015963274160425787
197.55859375,7.850362602941065e-05
197.65625,0.0001058891150701314
197.75390625,6.485478551013654e-05
197.8515625,0.00014989972575823324
197.94921875,0.00018462540083939876
198.046875,0.00010748097776936518
198.14453125,0.0001234013546223964
198.2421875,0.00017893826890526404
198.33984375,0.0001561181137024766
198.4375,7.737823541759006e-05
198.53515625,2.286978699620224e-05
198.6328125,0.00015983375576527432
198.73046875,0.00021844176454215237
198.828125,0.00011005061462547334
198.92578125,0.00011058966809492532
199.0234375,0.0001415460603527918
199.12109375,0.0001282111105142322
199.21875,0.0001654291412016096
199.31640625,0.000128293043140319
199.4140625,0.00021290455276644458
199.51171875,9.426076973149252e-05
199.609375,0.00018927631972570083
199.70703125,0.0001128946109170838
199.8046875,5.447915892887281e-05
199.90234375,0.00011861887646606896
200.0,9.574943589631749e-05
200.09765625,0.00010688393614482133
200.1953125,0.00014059548400376388
200.29296875,0.00010626182148353321
200.390625,0.0001779453494372264
200.48828125,2.8600498506124652e-05
200.5859375,8.67094009009237e-05
200.68359375,0.00015184501647252938
200.78125,0.00011927171108155847
200.87890625,2.1544962681288265e-05
200.9765625,9.536697129192712e-05
201.07421875,6.113636964950105e-05
201.171875,6.309010217308043e-05
201.26953125,6.452163445937646e-05
201.3671875,8.706126440800277e-05
201.46484375,0.0002981012863615862
201.5625,0.0001936833101565291
201.66015625,3.4629144670205174e-05
201.7578125,7.131521578015709e-05
201.85546875,0.0001089948580796219
201.953125,0.00010814600486470092
202.05078125,8.977657275834275e-05
202.1484375,5.067303170895887e-05
202.24609375,0.0001529604698257942
202.34375,7.957872621988883e-05
202.44140625,9.333970660296639e-05
202.5390625,0.00018815881245838302
202.63671875,0.00010755831476197936
202.734375,7.71984028046154e-05
202.83203125,0.00012232141192594441
202.9296875,0.0001201661304255129
203.02734375,4.543924533427667e-05
203.125,0.00010870084659111122
203.22265625,6.747234830042762e-05
203.3203125,2.0150657568002994e-05
203.41796875,7.474833806399842e-05
203.515625,0.00012103152647667759
203.61328125,0.00015840751413187857
203.7109375,4.287210712771539e-05
203.80859375,5.065396983850835e-05
203.90625,0.00011960291780136985
204.00390625,2.3050642237223812e-05
204.1015625,3.662509002810003e-05
204.19921875,2.7815901018553195e-05
204.296875,8.759345871422078e-05
204.39453125,6.238524585703637e-05
204.4921875,7.554677708578446e-05
204.58984375,6.233298011386115e-05
204.6875,3.835048882927766e-05
204.78515625,6.288741788122676e-05
204.8828125,4.725928663954016e-05
204.98046875,5.8407428298127404e-05
205.078125,8.345540293246892e-05
205.17578125,5.155384736401416e-05
205.2734375,8.518231602374707e-05
205.37109375,5.0488205043362973e-05
205.46875,2.222445840958224e-05
205.56640625,6.852493267262697e-05
205.6640625,9.530859059245293e-05
205.76171875,6.265874746890068e-05
205.859375,3.409661642842612e-05
205.95703125,0.00016265642398133716
206.0546875,0.00013684827102829436
206.15234375,0.00010691994191847412
206.25,5.698316236468437e-05
206.34765625,0.00011564761924698819
206.4453125,0.00020099466263266558
206.54296875,0.00011955945658820775
206.640625,1.7025143328582957e-05
206.73828125,3.352634763683769e-05
206.8359375,8.538980835491945e-05
206.93359375,0.00019498828266121857
207.03125,6.527938413118477e-05
207.12890625,0.00020786212381541363
207.2265625,0.00012233445914357167
207.32421875,0.00011901591412538122
207.421875,2.8848426596268942e-05
207.51953125,8.175441109260176e-05
207.6171875,3.216342848101202e-05
207.71484375,0.00019334759580535274
207.8125,7.83872481160536e-05
207.91015625,0.00015667401047268165
208.0078125,0.00011833962234838736
208.10546875,9.778099630264997e-05
208.203125,0.00015411190320600553
208.30078125,3.90722832001469e-05
208.3984375,4.545251380923474e-05
208.49609375,4.7586682080001144e-05
208.59375,9.763871530033363e-05
208.69140625,0.00015162266626117844
208.7890625,6.456666183536381e-05
208.88671875,3.824048472950134e-05
208.984375,6.525569892337684e-05
209.08203125,2.7741302785423284e-05
209.1796875,3.942657801483047e-05
209.27734375,0.00020594291173638138
209.375,0.00011343452907795794
209.47265625,9.458926866816352e-05
209.5703125,8.943312377409935e-05
209.66796875,0.00010971858427211289
209.765625,0.0001074890902389768
209.86328125,4.950765628046408e-05
209.9609375,0.00012700018995417427
210.05859375,4.336858692872961e-05
210.15625,7.113383020356353e-05
210.25390625,2.388440993633877e-05
210.3515625,2.5259282068031784e-05
210.44921875,1.4905694030800622e-05
210.546875,0.00013805805459134014
210.64453125,3.3741071991491233e-05
210.7421875,7.412497274776115e-05
210.83984375,8.435057711475937e-05
210.9375,7.087385809506736e-05
211.03515625,0.0001753190312168447
211.1328125,3.9123020039577146e-05
211.23046875,0.0002274543305067503
211.328125,9.820250859014825e-05
211.42578125,5.8296367542360674e-05
211.5234375,5.309409374621648e-05
211.62109375,0.00017015951937730323
211.71875,0.00010624034374908428
211.81640625,0.00010150088889822064
211.9140625,5.481934025132132e-05
212.01171875,0.00020392488499059995
212.109375,0.0001194838993607319
212.20703125,6.874108823983116e-05
212.3046875,0.00011149796148041496
212.40234375,0.00013770388596008837
212.5,7.902544983176454e-05
212.59765625,0.0001262074128329516
212.6953125,8.394875854799333e-05
212.79296875,7.20178482117623e-05
212.890625,0.00021526343835423262
212.98828125,9.131947853871286e-05
213.0859375,0.00021000914432641097
213.18359375,9.806511526470742e-05
213.28125,3.548148484785039e-05
213.37890625,9.150368441635845e-05
213.4765625,0.00014917922982516938
213.57421875,0.00018869006987494016
213.671875,1.3881936795884953e-05
213.76953125,0.00011947632807091521
213.8671875,6.850680124991169e-05
213.96484375,0.00011777520117696242
214.0625,0.0001821839556877456
214.16015625,0.00016616740837151244
214.2578125,7.719180732328608e-05
214.35546875,8.602707316476256e-05
214.453125,0.00013982865384218871
214.55078125,0.0001021899120807123
214.6484375,3.3539016096116605e-05
214.74609375,0.00018216093105658332
214.84375,9.979821782191573e-05
214.94140625,9.602838288284881e-05
215.0390625,0.00011848502913908808
215.13671875,2.9070622931678064e-05
215.234375,6.487013632889669e-05
215.33203125,2.4196588429380468e-05
215.4296875,3.171220315563395e-05
215.52734375,0.00010729785811610586
215.625,4.4355320315081254e-05
215.72265625,7.53576125057586e-05
215.8203125,0.0001252803356400413
215.91796875,0.00013804042687928368
216.015625,1.5780337516745934e-05
216.11328125,8.634567826904427e-05
216.2109375,3.7528164623197815e-05
216.30859375,0.0001452743472191263
216.40625,0.0001361333126355153
216.50390625,0.00010843085052441583
216.6015625,0.00012134617325412105
216.69921875,0.00013954621816019707
216.796875,0.00017245387669682357
216.89453125,0.00014653816923126524
216.9921875,0.00010293242181104335
217.08984375,3.290549622237213e-05
217.1875,0.00010989641558798074
217.28515625,9.74757270092447e-05
217.3828125,0.00012124457292437749
217.48046875,0.00011534378126541577
217.578125,4.175315811262285e-05
217.67578125,1.9574771457062734e-05
217.7734375,0.00011638520946238363
217.87109375,4.961500005992509e-05
217.96875,9.016018020735962e-05
218.06640625,7.573722173636427e-05
218.1640625,7.041096633482059e-05
218.26171875,0.0001233769566026871
218.359375,0.00010040451946318684
218.45703125,3.928692290318943e-05
218.5546875,9.086281930653294e-05
218.65234375,7.893815975127018e-05
218.75,5.286530652793934e-05
218.84765625,7.84039805204884e-05
218.9453125,3.519125246349751e-05
219.04296875,4.73009687095965e-05
219.140625,2.694543704912619e-05
219.23828125,9.322541755999642e-05
219.3359375,7.002766907940798e-05
219.43359375,0.00014600508294186306
219.53125,9.42453068784442e-05
219.62890625,7.701568542204991e-05
219.7265625,7.25439591143377e-05
219.82421875,6.475744969285128e-05
219.921875,6.084164427728943e-05
220.01953125,0.00016941566759750922
220.1171875,0.00011706512938431159
220.21484375,0.0001556777482502351
220.3125,0.000186656817277732
220.41015625,7.858564612649201e-05
220.5078125,8.731047282519426e-05
220.60546875,0.00017565910927505663
220.703125,9.405931506486957e-05
220.80078125,0.0001292862737687387
220.8984375,9.513998881364984e-05
220.99609375,1.2740243822365904e-05
221.09375,0.0001526685072307343
221.19140625,8.280059875197037e-05
221.2890625,0.00013755209606420855
221.38671875,0.0002031760449878016
221.484375,4.998552154408326e-05
221.58203125,4.816503994376262e-05
221.6796875,4.244103465058036e-05
221.77734375,8.518045965676885e-05
221.875,7.499416633879944e-05
221.97265625,4.497434962810387e-05
222.0703125,1.8881736419570822e-05
222.16796875,3.8398838930642505e-05
222.265625,0.00016478029798875846
222.36328125,0.00013151719808017875
222.4609375,2.0122343560795527e-05
222.55859375,8.344471902375293e-05
222.65625,1.7681823882101555e-05
222.75390625,5.4307197543191434e-05
222.8515625,0.00011143012154457934
222.94921875,4.401041630665735e-05
223.046875,8.630747298206977e-05
223.14453125,9.1236415481143e-05
223.2421875,5.032711183828948e-05
223.33984375,8.344285410902499e-05
223.4375,5.374092757598475e-05
223.53515625,0.00013449600811955265
223.6328125,0.0001003146010520251
223.73046875,7.046199582480389e-05
223.828125,6.671246817144408e-05
223.92578125,4.0701877882288845e-05
224.0234375,0.00011885284629827155
224.12109375,0.00010715901495010484
224.21875,4.3773302957597976e-05
224.31640625,0.00010235736819205178
224.4140625,0.00013706338717518277
224.51171875,0.00011270401798107711
224.609375,9.046709314958603e-05
224.70703125,0.00010293228712392546
224.8046875,8.155366979469671e-05
224.90234375,0.0001606191068865175
225.0,0.0001567740736341497
225.09765625,0.00012992727422917082
225.1953125,0.00016100779148062237
225.29296875,0.00011478248858006566
225.390625,0.00013694626219029748
225.48828125,0.00010565092380366524
225.5859375,9.3317319934785e-05
225.68359375,5.829417077823955e-05
225.78125,6.552126941728515e-05
225.87890625,6.24729389326212e-05
225.9765625,5.945013989640203e-05
226.07421875,4.3678431579170016e-05
226.171875,7.202166796453868e-05
226.26953125,6.67947073326949e-05
226.3671875,7.192724975976955e-05
226.46484375,9.75265629549098e-06
226.5625,0.00010831544645835204
226.66015625,8.060018739779258e-05
226.7578125,5.277867552761409e-05
226.85546875,0.00016833664717690676
226.953125,3.006111811997497e-05
227.05078125,2.9025679670757027e-05
227.1484375,0.00010566960290431681
227.24609375,0.00014581329169346607
227.34375,0.00013951007097582623
227.44140625,7.346603599769702e-05
227.5390625,2.3243278724691437e-05
227.63671875,6.582730608360634e-05
227.734375,4.875989197602202e-05
227.83203125,0.0001026134093744216
227.9296875,5.630926222474944e-05
228.02734375,7.110860274739271e-05
228.125,0.0001070961525674275
228.22265625,0.00010699557551482772
228.3203125,9.535483634926791e-05
228.41796875,4.034602934413948e-05
228.515625,0.00011708546738982311
228.61328125,7.604274991418448e-05
228.7109375,8.860286851995096e-05
228.80859375,8.020426880320148e-05
228.90625,8.151467037952379e-05
229.00390625,7.423006786247257e-05
229.1015625,1.8426630491857385e-05
229.19921875,7.972897440742568e-05
229.296875,0.00011780970612030411
229.39453125,0.00013137458047438966
229.4921875,5.685102263463985e-05
229.58984375,7.596700101612182e-05
229.6875,8.343299726873367e-05
229.78515625,0.00011393310655710649
229.8828125,0.00010067766772001831
229.98046875,0.00014597013506277077
230.078125,6.795741541920266e-05
230.17578125,4.2020270593414436e-05
230.2734375,9.674511006431686e-05
230.37109375,0.00015741562426262225
230.46875,0.00015904341481282888
230.56640625,0.00013389321243128114
230.6640625,1.8159025346538223e-06
230.76171875,1.7908564135179446e-05
230.859375,5.153865424751728e-05
230.95703125,0.00010598178834409186
231.0546875,3.363106708327738e-05
231.15234375,4.307794649645357e-05
231.25,2.821059149381889e-06
231.34765625,0.00010260691653984634
231.4453125,4.507842149360574e-05
231.54296875,4.930970538029468e-05
231.640625,5.516355895398737e-05
231.73828125,0.0001090496758897088
231.8359375,5.3321427746524216e-05
231.93359375,4.0018343958549816e-05
232.03125,0.00012710397535879028
232.12890625,7.62405103184287e-05
232.2265625,5.503790056300602e-05
232.32421875,9.200267366163851e-05
232.421875,0.00011545248398160979
232.51953125,6.582945705936927e-05
232.6171875,0.00011750162462001272
232.71484375,4.824587757242828e-05
232.8125,6.98063114758575e-05
232.91015625,0.00011369163620653837
233.0078125,6.490965431013034e-05
233.10546875,8.014272553814944e-05
233.203125,5.7125382324662644e-05
233.30078125,0.00011028894986392685
233.3984375,8.704573579774598e-05
233.49609375,4.19988669794693e-05
233.59375,0.00012339997919894998
233.69140625,8.918776314903566e-05
233.7890625,6.0002520397757566e-05
233.88671875,6.751702876499504e-05
233.984375,5.482131063378012e-05
234.08203125,7.141534397177003e-05
234.1796875,3.315860617906168e-05
234.27734375,2.4119827238169178e-05
234.375,0.00011291271083995968
234.47265625,6.926008544145023e-05
234.5703125,2.8139062566657468e-05
234.66796875,0.00011944542503305399
234.765625,9.323419154924827e-05
234.86328125,3.784316355576937e-05
234.9609375,4.931653047378505e-05
235.05859375,9.41594300780788e-05
235.15625,0.00013687283261537832
235.25390625,3.8288536601743423e-05
235.3515625,4.790145156147749e-05
235.44921875,9.24370385821123e-05
235.546875,7.715712269479671e-05
235.64453125,2.356515681377059e-05
235.7421875,0.00011760265006311555
235.83984375,7.380839036894833e-05
235.9375,5.907716111723157e-05
236.03515625,9.720789537620693e-05
236.1328125,6.752708756962206e-05
236.23046875,7.534975658960677e-05
236.328125,4.1459448700617024e-05
236.42578125,4.854354248581263e-05
236.5234375,3.3514265836155814e-05
236.62109375,7.218197147139181e-05
236.71875,8.678931512124838e-05
236.81640625,6.415425313037047e-05
236.9140625,4.928682398617079e-06
237.01171875,6.935753455739433e-05
237.109375,3.990289302524832e-05
237.20703125,3.949856841225145e-05
237.3046875,0.0001255800618709588
237.40234375,6.491363551227678e-05
237.5,0.00012551641277875329
237.59765625,5.5177843560550057e-05
237.6953125,6.758974538590276e-05
237.79296875,3.5636092510835095e-05
237.890625,0.00010650885941861846
237.98828125,9.512917295911142e-05
238.0859375,2.1206878772801184e-05
238.18359375,7.815630633316036e-05
238.28125,0.00010518300390067923
238.37890625,8.519609992562198e-05
238.4765625,6.474495478978519e-05
238.57421875,0.000146247546879439
238.671875,6.328070279041713e-05
238.76953125,5.840423876785842e-05
238.8671875,2.035841889438943e-05
238.96484375,0.00011891599063417119
239.0625,8.915281222904292e-05
239.16015625,6.845130436972753e-06
239.2578125,8.597634932697199e-05
239.35546875,6.326859079672403e-05
239.453125,7.141415307242104e-05
239.55078125,7.470992948374658e-05
239.6484375,6.18289303049852e-05
239.74609375,0.00023644285576674285
239.84375,7.25115169701076e-05
239.94140625,7.531609990787873e-05
240.0390625,4.7951183097638846e-05
240.13671875,0.0001315522209898635
240.234375,6.475329949490778e-05
240.33203125,3.708747224861572e-05
240.4296875,8.207925880277115e-05
240.52734375,0.00012393570053657012
240.625,5.0277772899221214e-05
240.72265625,3.418136923212779e-05
240.8203125,2.8395877549298597e-05
240.91796875,0.00011449240273888044
241.015625,2.451899108140945e-05
241.11328125,8.454680801715517e-05
241.2109375,1.747885421517841e-05
241.30859375,8.369920214083312e-05
241.40625,1.9850406176542753e-05
241.50390625,6.833389331102129e-05
241.6015625,5.2976992434358274e-05
241.69921875,2.3350384831154036e-05
241.796875,7.948740955242066e-05
241.89453125,0.0001285741214923174
241.9921875,6.983692741351874e-05
242.08984375,5.305674542183336e-05
242.1875,8.275622605310682e-05
242.28515625,2.4480006516572664e-05
242.3828125,5.2072273250933286e-05
242.48046875,7.091567417040186e-05
242.578125,0.00011330747083290895
242.67578125,2.4798675542227428e-05
242.7734375,2.962437988651056e-05
242.87109375,0.00016805231407409263
242.96875,3.0278639082554266e-05
243.06640625,7.003875786587965e-05
243.1640625,4.762422709056112e-05
243.26171875,7.904242598778364e-05
243.359375,9.703186102556164e-05
243.45703125,1.9194172295775584e-05
243.5546875,3.3333865899013455e-05
243.65234375,0.000113045906714202
243.75,6.543199250808679e-05
243.84765625,6.905030468898529e-05
243.9453125,0.000110243415763545
244.04296875,1.5241251186837044e-05
244.140625,8.969917498177063e-05
244.23828125,4.994642365793227e-05
244.3359375,2.5562073208394554e-05
244.43359375,3.49874430556047e-05
244.53125,3.4384553179010595e-05
244.62890625,8.089790507290816e-05
244.7265625,5.3783945310673255e-05
244.82421875,5.957945805699306e-05
244.921875,0.00013070741054075282
245.01953125,2.277050194996811e-05
245.1171875,2.877555379390736e-05
245.21484375,0.0001373095009365878
245.3125,8.504096677870857e-05
245.41015625,7.065682065368095e-05
245.5078125,5.504288011021686e-05
245.60546875,7.360961213363104e-05
245.703125,1.800392993937363e-05
245.80078125,0.0001142943505236456
245.8984375,5.886492850465313e-05
245.99609375,7.847526163447755e-05
246.09375,0.00014690058725691128
246.19140625,6.20914389570599e-05
246.2890625,0.00010689170681128949
246.38671875,1.0130639198987927e-05
246.484375,4.295731395135929e-05
246.58203125,2.367889300342228e-05
246.6796875,1.9680491974337907e-05
246.77734375,7.869304227315296e-05
246.875,4.542197215401416e-05
246.97265625,3.705568600365047e-05
247.0703125,9.150805881129613e-05
247.16796875,7.30564868571878e-05
247.265625,0.00011940256651901543
247.36328125,4.002879211676157e-05
247.4609375,6.65659263027394e-05
247.55859375,6.313328417494712e-05
247.65625,0.00011380217256091627
247.75390625,7.95074277962546e-05
247.8515625,4.130188633244472e-05
247.94921875,7.144371464014793e-05
248.046875,5.0130178381760165e-05
248.14453125,2.1658751111871473e-05
248.2421875,0.00011198162290837124
248.33984375,4.607853671971451e-05
248.4375,3.495800239024251e-05
248.53515625,9.640225350588161e-05
248.6328125,0.00019212507563012512
248.73046875,6.990546478294656e-05
248.828125,0.00011558526388709592
248.92578125,4.840626708488525e-05
249.0234375,0.0001317056033443514
249.12109375,6.92625717650124e-05
249.21875,8.537005356399054e-05
249.31640625,7.422093821842853e-05
249.4140625,0.00013893744982432853
249.51171875,4.984616372239749e-05
249.609375,9.501762286836523e-05
249.70703125,6.045726481865096e-05
249.8046875,0.00011480529940603581
249.90234375,4.989398467611637e-05
250.0,2.6935068278986532e-05
250.09765625,3.8584112818917845e-05
250.1953125,1.926459570086825e-05
250.29296875,4.023626794478764e-05
250.390625,9.032519612748742e-05
250.48828125,8.612649362687793e-05
250.5859375,6.395710696066741e-05
250.68359375,3.2696992312453954e-05
250.78125,3.1728209382574035e-05
250.87890625,7.092383231727144e-05
250.9765625,8.5817374733704e-05
251.07421875,8.4327195635745e-05
251.171875,3.536849384254298e-05
251.26953125,2.253300041376994e-05
251.3671875,1.250730055654411e-05
251.46484375,5.364394914402293e-05
251.5625,0.00011319067883333822
251.66015625,4.918316643262767e-05
251.7578125,0.00010255004893714437
251.85546875,6.767239866386673e-05
251.953125,9.714789524526667e-05
252.05078125,0.00011298935276988097
252.1484375,8.163968078184333e-05
252.24609375,9.957154110148538e-05
252.34375,0.00015222770918497776
252.44140625,9.139874319948135e-05
252.5390625,6.544527986638507e-05
252.63671875,3.29975963359544e-05
252.734375,7.279969586843756e-05
252.83203125,6.5235740426816e-05
252.9296875,4.8993745163131025e-05
253.02734375,0.0001014540924646935
253.125,0.00011501652287938989
253.22265625,9.289417234880668e-05
253.3203125,2.254753280119767e-05
253.41796875,5.5881377312977875e-05
253.515625,2.3545763344304476e-05
253.61328125,0.00010036538414286104
253.7109375,6.382539534056643e-05
253.80859375,9.682268490963498e-06
253.90625,0.00011546645195442982
254.00390625,3.0361262249708446e-05
254.1015625,3.5155278100988654e-05
254.19921875,5.5024700655529594e-05
254.296875,4.718117162437115e-05
254.39453125,5.1799731546998424e-05
254.4921875,8.218412325362048e-05
254.58984375,6.734147439570148e-05
254.6875,5.377409090293552e-05
254.78515625,8.66634675596708e-05
254.8828125,6.354867293340536e-05
254.98046875,6.960343201220513e-05
255.078125,8.4113198364429e-05
255.17578125,3.504082521488815e-05
255.2734375,5.823269601661223e-05
255.37109375,3.56074908627693e-05
255.46875,7.627534389433519e-05
255.56640625,4.2359070844520475e-05
255.6640625,5.1614667096715295e-05
255.76171875,3.3172128500769945e-06
255.859375,7.456966387466203e-05
255.95703125,3.142072375570691e-05
256.0546875,6.915895009754729e-05
256.15234375,4.442714464302556e-05
256.25,4.7124274329671675e-05
256.34765625,8.987148426735909e-05
256.4453125,4.0517194475099434e-05
256.54296875,0.00010522782516581445
256.640625,8.866258183122472e-05
256.73828125,2.701664479682548e-05
256.8359375,3.355940747044452e-05
256.93359375,9.636868349088883e-05
257.03125,5.686372752630954e-05
257.12890625,2.486535958789664e-05
257.2265625,4.271352840352098e-05
257.32421875,3.205728336742948e-05
257.421875,4.1590983420025724e-05
257.51953125,4.660188551447247e-05
257.6171875,4.002957532302431e-05
257.71484375,2.3764411127245225e-05
257.8125,1.3062908777510297e-05
257.91015625,2.9598122802832228e-05
258.0078125,8.856729843913875e-05
258.10546875,2.3751924378825637e-05
258.203125,4.942590302433255e-05
258.30078125,5.901731244534191e-05
258.3984375,5.171335093546425e-05
258.49609375,4.1827893300291524e-05
258.59375,3.639072941600149e-05
258.69140625,3.839568714664847e-05
258.7890625,6.95899509164979e-05
258.88671875,3.632049546531226e-05
258.984375,3.6010184113771506e-05
259.08203125,7.202907245242161e-05
259.1796875,3.643464112128242e-05
259.27734375,5.498225577523424e-05
259.375,5.742275855618714e-05
259.47265625,0.00012644701062543656
259.5703125,2.7724274327913204e-05
259.66796875,3.43420057772213e-05
259.765625,0.00010061279968330187
259.86328125,2.7118956518917973e-05
259.9609375,3.0565189077698705e-05
260.05859375,5.6700443032582194e-05
260.15625,4.019388612413628e-05
260.25390625,0.00013075569009320578
260.3515625,8.145852185211903e-05
260.44921875,2.798666862251986e-05
260.546875,2.288108126049293e-05
260.64453125,2.5295856038389355e-05
260.7421875,0.00013472624162927946
260.83984375,9.389971794916024e-05
260.9375,4.696813176238977e-05
261.03515625,4.197386626825111e-05
261.1328125,2.3077021415709405e-05
261.23046875,4.211086111163849e-05
261.328125,3.6764957128579385e-05
261.42578125,5.658275279201799e-05
261.5234375,6.763675597027442e-05
261.62109375,4.006714051516871e-05
261.71875,5.464770843758625e-05
261.81640625,8.449157655857505e-05
261.9140625,3.9842539921921654e-05
262.01171875,3.4053492732895366e-05
262.109375,6.447501250874607e-05
262.20703125,4.6799898550440424e-05
262.3046875,6.5707531066101e-05
262.40234375,2.5807023893917473e-05
262.5,7.047123363423538e-05
262.59765625,3.6211469528575514e-05
262.6953125,5.8836715586752346e-05
262.79296875,2.5740285292368283e-05
262.890625,0.00012796886636870104
262.98828125,2.837139801452266e-05
263.0859375,2.9675669688694124e-05
263.18359375,3.7696541660045504e-05
263.28125,1.1117630277032575e-05
263.37890625,5.728300308239842e-05
263.4765625,7.646678421978843e-05
263.57421875,2.149894670565891e-05
263.671875,3.7228719374929177e-05
263.76953125,1.89403732920013e-06
263.8671875,2.1470230343817814e-05
263.96484375,4.2132900996043286e-05
264.0625,4.057171343527151e-05
264.16015625,6.780010403595079e-05
264.2578125,5.42492168661976e-05
264.35546875,0.0001025526580519527
264.453125,2.5541922293612852e-05
264.55078125,8.122153380090802e-06
264.6484375,1.0124852016993877e-05
264.74609375,4.6792223810845665e-05
264.84375,0.00010677604719161881
264.94140625,5.816247822183668e-05
265.0390625,4.733022759339798e-05
265.13671875,9.341921763788846e-05
265.234375,5.0169049803740295e-05
265.33203125,4.98518358460452e-05
265.4296875,8.880010460233179e-06
265.52734375,5.223235079849476e-05
265.625,7.817787577429409e-06
265.72265625,9.309999679145931e-05
265.8203125,6.802955284107873e-06
265.91796875,1.8868392594693157e-05
266.015625,6.0830779449986514e-05
266.11328125,5.609983509037394e-05
266.2109375,3.8846562889774377e-05
266.30859375,3.306550386845336e-05
266.40625,4.321386225272499e-05
266.50390625,1.4265620427021158e-05
266.6015625,5.614176782897468e-05
266.69921875,5.3386652725405816e-05
266.796875,3.692576832038934e-05
266.89453125,6.158689107675531e-05
266.9921875,3.9197115582882056e-05
267.08984375,4.691380828260295e-05
267.1875,4.435654609215245e-05
267.28515625,9.489668535033579e-05
267.3828125,4.6008962087119096e-05
267.48046875,7.536621093251288e-05
267.578125,6.845272778817291e-05
267.67578125,6.114536435361724e-05
267.7734375,4.257160600500286e-05
267.87109375,4.018569525086539e-05
267.96875,3.6649136782039e-05
268.06640625,6.74902262800559e-05
268.1640625,6.634024694455442e-05
268.26171875,6.997725806123003e-05
268.359375,5.4178692823798056e-05
268.45703125,2.730419998865161e-05
268.5546875,7.673397901526104e-05
268.65234375,5.381106417360753e-06
268.75,4.8491772474140474e-05
268.84765625,6.60780031136659e-05
268.9453125,5.088677438709964e-05
269.04296875,5.172221072620388e-05
269.140625,9.718552312315994e-05
269.23828125,2.725057822023726e-05
269.3359375,3.367779482808471e-05
269.43359375,3.926566106550399e-05
269.53125,6.754788401574611e-05
269.62890625,9.492563087044749e-05
269.7265625,3.693753045996151e-05
269.82421875,0.00010850822136089148
269.921875,3.0479329602568333e-06
270.01953125,1.9711142241183026e-05
270.1171875,4.590637035778813e-05
270.21484375,4.308285997696392e-05
270.3125,1.4427592380605734e-05
270.41015625,0.00013584666700926432
270.5078125,2.5700298100944003e-05
270.60546875,3.023895267961206e-05
270.703125,6.159495281987456e-05
270.80078125,5.893895992021872e-05
270.8984375,2.348421765506088e-05
270.99609375,7.491851718640087e-06
271.09375,2.3758681310669765e-05
271.19140625,8.411165898776454e-05
271.2890625,2.7668219822591126e-05
271.38671875,3.644447271961967e-05
271.484375,3.4594738004567466e-05
271.58203125,1.924208732116482e-05
271.6796875,4.446053007097112e-05
271.77734375,4.829395285783599e-05
271.875,6.68188904619034e-05
271.97265625,2.979331118630052e-05
272.0703125,1.985915370082257e-05
272.16796875,7.174673206742865e-05
272.265625,1.023855295407369e-05
272.36328125,3.592333419482461e-05
272.4609375,4.5060765037386996e-05
272.55859375,4.892044811429618e-05
272.65625,7.774291791456722e-05
272.75390625,3.577406187085075e-05
272.8515625,2.4113122308266567e-05
272.94921875,5.054186187378189e-05
273.046875,9.425256897254694e-05
273.14453125,3.416443125799978e-05
273.2421875,3.480903078315854e-05
273.33984375,3.416779770733081e-05
273.4375,4.5653307161478725e-05
273.53515625,3.07997104060731e-05
273.6328125,1.7495123674371377e-05
273.73046875,6.752281375978512e-05
273.828125,3.075884756529997e-05
273.92578125,3.446734594008742e-05
274.0234375,1.4568472773264876e-05
274.12109375,7.758264560631304e-05
274.21875,3.2083632795210485e-06
274.31640625,4.3995213504572706e-05
274.4140625,4.984247616107316e-05
274.51171875,4.143222360330421e-05
274.609375,5.986148925275727e-06
274.70703125,6.117337001901619e-05
274.8046875,3.067502408099708e-05
274.90234375,4.944577176108874e-05
275.0,3.1040574023044884e-05
275.09765625,1.353171329042676e-05
275.1953125,7.23865057809525e-05
275.29296875,2.4727996579522392e-05
275.390625,3.660507302130852e-05
275.48828125,6.18928443579592e-05
275.5859375,3.0026920107953655e-05
275.68359375,5.2734891589515495e-05
275.78125,1.4568241064544167e-05
275.87890625,3.7018442428533754e-05
275.9765625,2.2952958050523693e-05
276.07421875,6.384372080171739e-06
276.171875,3.3908323430110555e-05
276.26953125,8.157584586293561e-05
276.3671875,2.8102321852395094e-05
276.46484375,1.5573343706026766e-05
276.5625,3.2066190755282746e-05
276.66015625,6.93608861397864e-05
276.7578125,2.1425194307999787e-05
276.85546875,0.00011047254466121117
276.953125,5.627042120095211e-05
277.05078125,1.3448209744243577e-05
277.1484375,3.365123988330165e-05
277.24609375,3.68959518780886e-05
277.34375,4.608473360523864e-05
277.44140625,1.7036660621619163e-05
277.5390625,3.3653669760246386e-05
277.63671875,2.2795799888176404e-05
277.734375,2.6515139931632023e-05
277.83203125,6.04804534765238e-05
277.9296875,1.050870104023692e-05
278.02734375,1.6595476789662875e-05
278.125,8.258239445401804e-05
278.22265625,2.447061929461804e-05
278.3203125,3.1489518377819595e-05
278.41796875,3.325680805560496e-05
278.515625,6.699093650201115e-05
278.61328125,8.903401670175482e-05
278.7109375,8.112795680695654e-06
278.80859375,3.0105313371118592e-05
278.90625,4.892407048309735e-05
279.00390625,5.389756339242675e-05
279.1015625,1.7541051594112497e-05
279.19921875,4.990202622158981e-05
279.296875,4.8453158745335994e-05
279.39453125,7.80574578760199e-05
279.4921875,3.2548864206382516e-05
279.58984375,3.586341270309094e-05
279.6875,2.6307069965959327e-05
279.78515625,7.807045646853612e-05
279.8828125,2.998077594091e-05
279.98046875,4.289211219452591e-05
280.078125,1.3829195242803081e-05
280.17578125,7.892383958436472e-05
280.2734375,4.173217266656124e-05
280.37109375,6.681792760705694e-05
280.46875,4.429807765037415e-05
280.56640625,5.25446967644154e-05
280.6640625,2.936481961810338e-05
280.76171875,5.4384412589639116e-05
280.859375,5.928310166156058e-05
280.95703125,4.434379248859855e-05
281.0546875,1.703847217192496e-05
281.15234375,5.946641553811359e-05
281.25,1.946441099981983e-05
281.34765625,6.17413108000488e-05
281.4453125,1.9126661788721933e-05
281.54296875,3.727493219141508e-05
281.640625,5.86949750534138e-05
281.73828125,3.907674223849803e-05
281.8359375,1.1806817316760962e-05
281.93359375,1.716855287935491e-05
282.03125,4.5089290337495475e-05
282.12890625,4.520473796287116e-06
282.2265625,5.227245476334221e-05
282.32421875,3.8748848036262025e-05
282.421875,5.140204218158573e-05
282.51953125,4.7359201341176016e-05
282.6171875,4.990462054507941e-05
282.71484375,6.023678688727202e-06
282.8125,5.5677424994054315e-05
282.91015625,6.357052231956708e-06
283.0078125,3.6933105808803376e-05
283.10546875,5.1162985344566474e-05
283.203125,7.024961969107277e-05
283.30078125,6.425099696877275e-05
283.3984375,1.6783780007605972e-05
283.49609375,3.5625685760625496e-05
283.59375,2.220538138137097e-05
283.69140625,6.201866395903466e-05
283.7890625,2.2990868347309244e-05
283.88671875,3.187679880626924e-05
283.984375,2.4207875824435166e-05
284.08203125,5.097752983549874e-05
284.1796875,9.468400224335457e-06
284.27734375,2.138111246156187e-05
284.375,2.8751837379670158e-05
284.47265625,1.474598126509333e-05
284.5703125,0.00010616754121182319
284.66796875,3.29892725644244e-05
284.765625,3.122975014532838e-05
284.86328125,1.287284972706823e-05
284.9609375,4.2135975632508134e-05
285.05859375,3.809809487486163e-05
285.15625,1.3320153857478727e-05
285.25390625,1.7887139837901475e-05
285.3515625,2.7301667668496908e-05
285.44921875,4.087709919496925e-05
285.546875,5.353635001021818e-05
285.64453125,3.737832169341648e-05
285.7421875,6.433953426039165e-05
285.83984375,4.765267753057568e-05
285.9375,3.280418170243027e-05
286.03515625,4.5635369839968024e-05
286.1328125,2.7597587456676996e-05
286.23046875,4.8450474919374455e-05
286.328125,1.649546066978817e-05
286.42578125,6.579882621007816e-05
286.5234375,4.7169811382273606e-05
286.62109375,4.6474426303638124e-05
286.71875,1.8193349059898773e-05
286.81640625,6.157768802202771e-05
286.9140625,3.9215918374288485e-05
287.01171875,2.8901369644342536e-05
287.109375,1.3423348589491708e-05
287.20703125,8.465684130006856e-06
287.3046875,5.534174288628681e-05
287.40234375,5.3381591303957806e-05
287.5,3.833726695582078e-05
287.59765625,1.9507068579341883e-05
287.6953125,2.24709267504186e-05
287.79296875,2.2283219823663426e-05
287.890625,1.9355555165836236e-05
287.98828125,2.0861586841483826e-05
288.0859375,5.7266640024462977e-05
288.18359375,6.518544582733656e-05
288.28125,3.41309103245365e-05
288.37890625,8.06043878537252e-05
288.4765625,4.873132116830386e-05
288.57421875,4.3778631059618935e-05
288.671875,2.2738171932835765e-05
288.76953125,1.3329955296755918e-05
288.8671875,3.10717752484866e-05
288.96484375,1.9997888260179842e-05
289.0625,5.100915238712457e-05
289.16015625,1.5571682407448116e-05
289.2578125,6.599577536645121e-05
289.35546875,8.898898935492039e-06
289.453125,1.7245042141920743e-05
289.55078125,9.451404039814465e-06
289.6484375,2.4185334877347027e-05
289.74609375,4.036561244065975e-05
289.84375,3.988930654990004e-05
289.94140625,3.607517626181139e-05
290.0390625,2.582163503132167e-05
290.13671875,1.2391342902206064e-05
290.234375,6.710470034236136e-05
290.33203125,2.3653061996315232e-05
290.4296875,1.2998374354386303e-05
290.52734375,4.797838787783874e-05
290.625,2.2876551658491118e-05
290.72265625,8.065562844352088e-05
290.8203125,6.183235186006955e-05
290.91796875,6.803239168639255e-05
291.015625,6.376743195178731e-05
291.11328125,3.143809324109036e-05
291.2109375,1.797807391912201e-05
291.30859375,1.6832475991165073e-05
291.40625,4.5628674328803724e-05
291.50390625,2.087608965964776e-05
291.6015625,5.1058599654498614e-05
291.69921875,3.681736302723881e-05
291.796875,2.3184287956488034e-05
291.89453125,2.701379697615803e-05
291.9921875,1.5732136252287052e-05
292.08984375,1.1920122682231603e-05
292.1875,2.8305279094691633e-05
292.28515625,4.3963947158614004e-05
292.3828125,3.407238333271083e-05
292.48046875,1.0805798256621073e-05
292.578125,3.846726110510441e-05
292.67578125,6.78743380016845e-05
292.7734375,2.5268572077076428e-05
292.87109375,4.2860822799444314e-05
292.96875,4.2389715003820335e-05
293.06640625,6.202535115828648e-05
293.1640625,1.8322660546058587e-05
293.26171875,6.76531592908443e-05
293.359375,2.062333608012725e-05
293.45703125,3.973622182425262e-05
293.5546875,5.41077094707892e-05
293.65234375,4.6914107749029044e-05
293.75,2.7937872060460425e-05
293.84765625,7.509406246563864e-05
293.9453125,3.0612638910393075e-05
294.04296875,4.172125522622342e-05
294.140625,2.611121862128776e-05
294.23828125,3.0062575565506268e-05
294.3359375,4.342923834579595e-05
294.43359375,3.940767591581546e-05
294.53125,2.1802410950225545e-05
294.62890625,1.0914556387945913e-05
294.7265625,3.72445994950673e-05
294.82421875,4.245329912104159e-05
294.921875,1.6949935100422333e-05
295.01953125,1.4284671407270432e-05
295.1171875,8.961377547343501e-06
295.21484375,3.3835482654302386e-05
295.3125,6.656211912760453e-05
295.41015625,1.7919388532854123e-05
295.5078125,2.1771730769502343e-05
295.60546875,3.7505685040147994e-05
295.703125,8.845264211134724e-07
295.80078125,2.728974291174978e-05
295.8984375,2.7776309379558345e-05
295.99609375,4.424968654079378e-05
296.09375,4.463855454497048e-05
296.19140625,4.221373496422341e-05
296.2890625,3.6611729715762695e-05
296.38671875,8.919711526444879e-06
296.484375,3.644501075482236e-05
296.58203125,4.841402524884121e-05
296.6796875,2.7890857478461614e-05
296.77734375,2.74696152762342e-05
296.875,2.020742584066051e-05
296.97265625,1.9798190102100913e-05
297.0703125,2.5889047236799147e-05
297.16796875,1.3095639303212974e-05
297.265625,8.238809067401864e-06
297.36328125,5.288458934520182e-06
297.4609375,1.5903883274533318e-05
297.55859375,2.3327719163899858e-05
297.65625,8.552578272847847e-06
297.75390625,4.632375716265015e-05
297.8515625,1.6872021917793678e-05
297.94921875,2.5038315385754252e-05
298.046875,2.036556998263661e-06
298.14453125,2.1270659303411343e-05
298.2421875,1.8572069779759795e-05
298.33984375,2.7095535841120116e-05
298.4375,2.764277343337697e-06
298.53515625,2.782043301413966e-05
298.6328125,5.129245102914121e-05
298.73046875,3.4417034942160764e-05
298.828125,4.011313650756771e-05
298.92578125,2.2008947414240793e-05
299.0234375,5.926547432919661e-06
299.12109375,1.3141572094448597e-05
299.21875,2.4179870513877996e-05
299.31640625,3.0798294765072376e-05
299.4140625,4.146340398025012e-05
299.51171875,2.860522899941783e-05
299.609375,2.3007037038938287e-05
299.70703125,1.5980429653165344e-05
299.8046875,3.666151402107306e-05
299.90234375,1.631933398060435e-06
300.0,7.935580922759244e-06
300.09765625,2.3133202767373696e-05
300.1953125,1.54718936688032e-05
300.29296875,5.264114580294122e-06
300.390625,2.5618994860875502e-05
300.48828125,1.9225046052816162e-05
300.5859375,2.233544446517027e-05
300.68359375,8.443530969763104e-06
300.78125,1.5489697561018883e-05
300.87890625,3.3786204676380226e-05
300.9765625,4.282021464584147e-05
301.07421875,1.3661103034999932e-05
301.171875,1.4455935962208553e-05
301.26953125,2.4629941740866507e-05
301.3671875,8.703111342863755e-06
301.46484375,4.5328389328853265e-05
301.5625,4.063445378159003e-05
301.66015625,6.890748672208005e-06
301.7578125,6.330877841704205e-06
301.85546875,1.5335200247451692e-05
301.953125,2.6265534098796416e-05
302.05078125,1.0142314684622682e-05
302.1484375,1.947660998051046e-06
302.24609375,1.1767638596607134e-05
302.34375,4.002558362086228e-05
302.44140625,5.9607156609719225e-05
302.5390625,2.7931935748469326e-05
302.63671875,9.978549425292976e-06
302.734375,7.500844598113181e-06
302.83203125,5.9048938508354576e-05
302.9296875,1.0246683717770505e-05
303.02734375,2.955469345123141e-05
303.125,2.9321547478512902e-05
303.22265625,2.1011324477427094e-05
303.3203125,2.0059701381523545e-05
303.41796875,4.661223213227338e-05
303.515625,3.2997484831766046e-05
303.61328125,3.897558858078544e-05
303.7109375,2.404398241175833e-05
303.80859375,4.829529209851493e-05
303.90625,3.058714305635794e-05
304.00390625,3.691602721619362e-05
304.1015625,4.320294698331414e-05
304.19921875,3.2126008833570435e-05
304.296875,2.0060950039204157e-05
304.39453125,1.817197557558164e-05
304.4921875,2.4940914386746084e-06
304.58984375,1.2692041563349276e-05
304.6875,5.700813428311216e-05
304.78515625,1.1396168391792117e-05
304.8828125,2.486702916900337e-05
304.98046875,1.490433811038634e-05
305.078125,2.0433937218178156e-05
305.17578125,2.3238399237106794e-05
305.2734375,1.111722203277636e-05
305.37109375,2.225626904381808e-05
305.46875,2.9423575798266705e-05
305.56640625,4.8261805956619495e-05
305.6640625,3.494134553150438e-05
305.76171875,1.7069288462492827e-05
305.859375,2.933346814616338e-05
305.95703125,2.7267504534574264e-05
306.0546875,3.3348539709818984e-05
306.15234375,2.0462054618320705e-05
306.25,3.216135432642443e-05
306.34765625,1.6833125070421596e-05
306.4453125,3.693202498137517e-05
306.54296875,3.043918963863446e-05
306.640625,7.424892777556315e-05
306.73828125,9.127868450767614e-06
306.8359375,3.407840058810171e-06
306.93359375,2.2351413023268303e-05
307.03125,1.2938598385532988e-05
307.12890625,1.7174261017238387e-05
307.2265625,2.1683821935843215e-05
307.32421875,1.4070218719864573e-05
307.421875,3.207602862141639e-05
307.51953125,1.128989817667613e-05
307.6171875,3.775697773780013e-05
307.71484375,1.7421469219304814e-05
307.8125,7.169493576614182e-06
307.91015625,8.139754240064425e-06
308.0078125,8.150925759199207e-06
308.10546875,1.7298623581131047e-05
308.203125,5.192633916185937e-05
308.30078125,3.174171733825276e-05
308.3984375,1.2200537720107433e-05
308.49609375,4.531007974418864e-05
308.59375,9.05869442688878e-06
308.69140625,3.181208613199308e-05
308.7890625,3.0492866122068958e-05
308.88671875,3.534792392835103e-05
308.984375,2.4448512639606065e-05
309.08203125,1.7979471500533504e-05
309.1796875,3.9598590144679146e-05
309.27734375,2.271924939391044e-05
309.375,2.7486168465087055e-05
309.47265625,4.274261528797995e-05
309.5703125,5.864374680032263e-06
309.66796875,8.104062368625557e-06
309.765625,2.0757481633158748e-05
309.86328125,1.847768304759801e-05
309.9609375,4.6442563137321354e-05
310.05859375,1.555339158982381e-05
310.15625,3.546017166000407e-05
310.25390625,1.3330155125378566e-05
310.3515625,2.1375037308934782e-05
310.44921875,2.2119100537565357e-05
310.546875,2.3056264764721748e-05
310.64453125,1.2808499647075948e-05
310.7421875,1.8636727107544867e-05
310.83984375,4.605530893408047e-05
310.9375,5.47568345066536e-05
311.03515625,4.471240094906721e-05
311.1328125,9.433623245270008e-06
311.23046875,5.863398331451096e-06
311.328125,3.6620014143192455e-05
311.42578125,1.2970942739678541e-05
311.5234375,9.00961048386472e-06
311.62109375,1.7309049864359803e-05
311.71875,1.7500730653900554e-05
311.81640625,9.29430934576372e-06
311.9140625,1.967394338718799e-05
312.01171875,3.393473336978494e-05
312.109375,3.2209628268552827e-05
312.20703125,1.6443284089090304e-05
312.3046875,2.89033097774219e-05
312.40234375,2.071192647209448e-05
312.5,1.8839518531768095e-05
312.59765625,2.5100207846802354e-05
312.6953125,1.992306187546976e-05
312.79296875,1.8483388390654737e-05
312.890625,4.2441437148059405e-06
312.98828125,1.2627514061606941e-05
313.0859375,4.3635810136888304e-05
313.18359375,2.4239230062565135e-05
313.28125,3.115853139755011e-05
313.37890625,1.1446561221939952e-05
313.4765625,2.7108282301979887e-05
313.57421875,3.7720294380566884e-05
313.671875,1.0256231029681847e-05
313.76953125,2.2535703806369684e-05
313.8671875,3.029973451755417e-05
313.96484375,1.696956243593296e-05
314.0625,9.170551946479527e-06
314.16015625,3.049030404438811e-05
314.2578125,1.6148324001229077e-05
314.35546875,1.8001625825166906e-05
314.453125,1.581074605944857e-05
314.55078125,2.979333830910304e-05
314.6484375,2.5506356007147904e-05
314.74609375,1.2852947464844816e-05
314.84375,8.662658489799762e-06
314.94140625,6.3538277235221475e-06
315.0390625,2.7753063275990526e-05
315.13671875,2.3984551195878378e-05
315.234375,2.468902939989149e-05
315.33203125,4.5909784259609955e-05
315.4296875,2.413571049973433e-05
315.52734375,1.3315166161976014e-05
315.625,4.1525170200298794e-05
315.72265625,8.703193485670632e-06
315.8203125,3.496878043917871e-05
315.91796875,1.623274439650669e-05
316.015625,1.6806936709704764e-05
316.11328125,2.3196995750858514e-05
316.2109375,1.2241050746785238e-05
316.30859375,2.921341855893391e-05
316.40625,7.157905051464372e-06
316.50390625,3.3245146340972724e-05
316.6015625,1.950987618238415e-05
316.69921875,2.930721676890526e-05
316.796875,3.8535914164840475e-05
316.89453125,3.9168946917920744e-05
316.9921875,3.090315796806984e-05
317.08984375,3.901162494486151e-05
317.1875,3.1565493016946485e-06
317.28515625,1.2487451972660396e-05
317.3828125,1.5822105691676845e-05
317.48046875,4.1382828458084386e-05
317.578125,1.0837261740819775e-05
317.67578125,6.819852627852154e-06
317.7734375,3.5902228107769764e-05
317.87109375,2.5403998266021197e-05
317.96875,2.8956413263345384e-05
318.06640625,1.6981143368924567e-05
318.1640625,1.6451680141627174e-05
318.26171875,1.869562627771713e-05
318.359375,3.137096339737602e-05
318.45703125,1.0893323798737503e-05
318.5546875,1.9848569932480662e-05
318.65234375,5.764579633553236e-06
318.75,2.3344587205255048e-05
318.84765625,7.079646984048429e-06
318.9453125,2.7861405029665297e-05
319.04296875,1.0290330008687113e-05
319.140625,3.7325085509594223e-05
319.23828125,2.2837861499340807e-05
319.3359375,3.4385342493348845e-06
319.43359375,1.636691648992387e-05
319.53125,1.413256430300912e-05
319.62890625,1.6103631788576833e-05
319.7265625,1.1190033936465372e-05
319.82421875,3.772278112098914e-05
319.921875,1.1865468027102485e-05
320.01953125,1.2425129771581897e-05
320.1171875,2.1250908578174348e-05
320.21484375,1.3459075455382364e-05
320.3125,9.030464610583413e-06
320.41015625,2.8128867382720996e-05
320.5078125,1.0862606924873274e-05
320.60546875,2.0227767306337833e-05
320.703125,1.775649431686573e-05
320.80078125,1.5029977450309229e-05
320.8984375,3.811578506264896e-05
320.99609375,1.4352275556026604e-05
321.09375,1.366885048555413e-05
321.19140625,1.4302254976737869e-05
321.2890625,2.4985239318923462e-06
321.38671875,7.240721418620936e-06
321.484375,1.5892757318606978e-05
321.58203125,1.8685795217651546e-05
321.6796875,2.951742508571637e-05
321.77734375,6.619098276591081e-06
321.875,1.765545657461876e-05
321.97265625,2.483490868933688e-05
322.0703125,1.0367664072158371e-05
322.16796875,2.0593420560929514e-05
322.265625,1.822743574908084e-05
322.36328125,1.6096713623435538e-05
322.4609375,2.3753937836581334e-05
322.55859375,3.1411516246817306e-06
322.65625,7.491124986057444e-06
322.75390625,9.771546633829214e-06
322.8515625,9.120928761599476e-06
322.94921875,2.5369981587399813e-05
323.046875,2.897540170906479e-05
323.14453125,1.2721580653748677e-05
323.2421875,2.7687702549788423e-05
323.33984375,1.945319414655612e-05
323.4375,4.085108212403742e-05
323.53515625,1.541792630316239e-05
323.6328125,1.76981143415316e-05
323.73046875,1.2743054152999815e-05
323.828125,1.846190813720143e-05
323.92578125,2.0158949334051765e-05
324.0234375,4.9120157729952635e-06
324.12109375,2.1265535669928042e-05
324.21875,1.0572711259121173e-05
324.31640625,1.8129463656258504e-05
324.4140625,3.7502414128460483e-06
324.51171875,3.0659153919093765e-05
324.609375,2.619896648834539e-05
324.70703125,2.2844577514845892e-05
324.8046875,3.633706623179108e-05
324.90234375,7.134421148946402e-06
325.0,2.203503992260745e-05
325.09765625,3.433778999713152e-05
325.1953125,3.2387563200934758e-06
325.29296875,1.7703608697285481e-06
325.390625,3.245918779724458e-05
325.48828125,9.39110820535845e-06
325.5859375,6.1571128439605404e-06
325.68359375,4.815768378142789e-06
325.78125,2.672777440666976e-05
325.87890625,2.2115184245630912e-05
325.9765625,9.913560419154332e-06
326.07421875,2.267382692015462e-05
326.171875,2.050124143254219e-05
326.26953125,2.2116399076274668e-05
326.3671875,1.023242963930172e-05
326.46484375,1.960285488939977e-05
326.5625,1.88282780193912e-05
326.66015625,2.407866532732367e-05
326.7578125,1.0884115270554548e-05
326.85546875,2.326592466540011e-05
326.953125,4.105443994004337e-06
327.05078125,1.9585959325715935e-05
327.1484375,2.2274933778051983e-05
327.24609375,2.0246969200870207e-05
327.34375,1.7747803547750238e-05
327.44140625,3.1897923355727066e-05
327.5390625,1.3516466624071872e-05
327.63671875,2.0675587433298197e-05
327.734375,9.370726554040469e-06
327.83203125,1.2038810504168765e-05
327.9296875,1.888014350028286e-05
328.02734375,6.496964203476403e-06
328.125,3.6956222346547584e-06
328.22265625,1.917228326202311e-05
328.3203125,2.1700171342301366e-05
328.41796875,4.806423683520299e-06
328.515625,1.0906749073126456e-05
328.61328125,1.4534400551960507e-05
328.7109375,1.0853249188988857e-05
328.80859375,5.687469846932975e-06
328.90625,2.7319104297639356e-05
329.00390625,2.1158708165870698e-05
329.1015625,1.4218054550155964e-05
329.19921875,2.678408178065898e-05
329.296875,3.2309082208155005e-06
329.39453125,4.085089641615185e-05
329.4921875,8.810982733007893e-06
329.58984375,1.1154094488799835e-05
329.6875,2.2169162379503694e-05
329.78515625,2.3407816614911005e-05
329.8828125,1.685362092397304e-05
329.98046875,1.7414265673090565e-05
330.078125,1.0873640644776599e-05
330.17578125,3.4987782602315638e-06
330.2734375,3.4069478034290068e-06
330.37109375,6.458560525577527e-06
330.46875,4.797659272498906e-06
330.56640625,2.70330300466483e-05
330.6640625,1.2355251528669759e-05
330.76171875,7.552211339158006e-06
330.859375,2.7307168203579782e-05
330.95703125,2.6594123750377783e-05
331.0546875,1.2179624001723944e-05
331.15234375,3.220467602636523e-05
331.25,2.517651401243526e-05
331.34765625,8.51386176956228e-06
331.4453125,1.8397668863420332e-05
331.54296875,1.3134894830508677e-05
331.640625,1.0960499710241058e-05
331.73828125,8.855894097617684e-06
331.8359375,7.142088769162777e-06
331.93359375,7.870538716308978e-06
332.03125,1.7280247222463767e-05
332.12890625,2.6871793661007507e-05
332.2265625,2.0707920459318422e-05
332.32421875,2.3228676998295984e-05
332.421875,1.4659558279867834e-05
332.51953125,5.458015597447507e-06
332.6171875,7.379591595890424e-06
332.71484375,9.68888513847361e-06
332.8125,4.845673651834791e-06
332.91015625,9.669191169345323e-06
333.0078125,2.334160414867738e-05
333.10546875,1.89262654972065e-05
333.203125,1.4006219967435308e-05
333.30078125,4.657408862917056e-06
333.3984375,2.49879461283648e-05
333.49609375,1.2360221970635588e-05
333.59375,2.4854533522285873e-05
333.69140625,7.303464007696739e-06
333.7890625,1.904094691322411e-05
333.88671875,2.0046597133632018e-05
333.984375,1.8924280458363683e-05
334.08203125,9.408356122495656e-06
334.1796875,1.5178115239756588e-05
334.27734375,9.88815849186542e-06
334.375,1.6909254733908497e-05
334.47265625,1.1553611588019793e-05
334.5703125,7.949497481097854e-06
334.66796875,2.8407882543960612e-05
334.765625,1.5877361091517646e-05
334.86328125,1.3773378577918727e-05
334.9609375,1.9371072961214735e-05
335.05859375,1.1761556017560855e-05
335.15625,1.36672710013092e-05
335.25390625,1.2436221785867525e-05
335.3515625,1.148168576985713e-05
335.44921875,1.996297687891288e-05
335.546875,9.771093867774158e-06
335.64453125,1.3568334818332994e-05
335.7421875,2.115607577933933e-05
335.83984375,1.99856728898404e-05
335.9375,4.4598941812476015e-06
336.03515625,2.3131892675532573e-05
336.1328125,1.7794413065299944e-05
336.23046875,1.5744253707598767e-05
336.328125,2.134486389903986e-05
336.42578125,2.1258951570549813e-05
336.5234375,1.9528556840922676e-05
336.62109375,1.2125183321416475e-05
336.71875,9.927122283707665e-06
336.81640625,8.687138847441884e-06
336.9140625,1.4575978191922357e-05
337.01171875,8.921289876249885e-06
337.109375,1.5097357579390827e-05
337.20703125,9.071701122287984e-06
337.3046875,2.1707570267947055e-05
337.40234375,1.5387599972325473e-05
337.5,2.0024346467434613e-05
337.59765625,1.5271560710044177e-05
337.6953125,9.829437896217857e-06
337.79296875,2.4441633589752077e-05
337.890625,3.652576499092159e-06
337.98828125,1.548640596215254e-05
338.0859375,2.054490263954782e-05
338.18359375,3.548826291313009e-05
338.28125,1.132945961838079e-05
338.37890625,1.7365373296419743e-05
338.4765625,1.4949234348328548e-05
338.57421875,3.0312459887481995e-05
338.671875,7.409597504419524e-06
338.76953125,2.253835617196994e-05
338.8671875,2.1885957232994118e-05
338.96484375,1.0123691929382688e-05
339.0625,4.3257786179117835e-06
339.16015625,1.9446926652120654e-05
339.2578125,1.128087835541783e-05
339.35546875,2.0617672832956138e-05
339.453125,2.0224151687615327e-05
339.55078125,1.355406609848079e-05
339.6484375,1.0530921576891272e-05
339.74609375,1.5283714208141798e-05
339.84375,8.890991757771579e-06
339.94140625,2.494649387519221e-05
340.0390625,2.0476864583160028e-05
340.13671875,1.909560450745264e-05
340.234375,9.080017694608399e-06
340.33203125,1.1898014825255293e-05
340.4296875,1.9752660922332918e-05
340.52734375,3.967923682511646e-06
340.625,9.757192222568785e-06
340.72265625,1.7625034348299668e-05
340.8203125,2.239317853918421e-05
340.91796875,1.3827010677910245e-05
341.015625,8.997917988715046e-06
341.11328125,3.273453992026225e-06
341.2109375,4.939129406789238e-06
341.30859375,1.1711369777333167e-05
341.40625,7.912642421981588e-06
341.50390625,1.5781968077111204e-05
341.6015625,1.1256753372519529e-05
341.69921875,2.388760856817493e-05
341.796875,2.4571099466563606e-05
341.89453125,1.6092866172908173e-05
341.9921875,2.411475126257083e-05
342.08984375,9.01197832067489e-06
342.1875,1.3773220573811146e-05
342.28515625,1.9854230714205634e-05
342.3828125,1.0232708028071154e-05
342.48046875,8.596819073978362e-06
342.578125,1.9647171099726638e-05
342.67578125,9.309986923565632e-06
342.7734375,7.012555074027233e-06
342.87109375,1.6346256770224077e-05
342.96875,9.87231624606861e-06
343.06640625,1.3356360868475493e-05
343.1640625,1.0075436864678538e-05
343.26171875,2.5513002681329603e-05
343.359375,2.04900385105478e-06
343.45703125,7.94167157272434e-06
343.5546875,1.7262066179591773e-05
343.65234375,6.841237800605536e-06
