Time (s),RMS EMG Relaxed
0.0,0.0064081571047766
0.0004883289383728,0.0202281144090992
0.0009766578767457,0.024025097815608
0.0014649868151186,0.0290974138210554
0.0019533157534915,0.041916208659474
0.0024416446918644,0.0574473614001961
0.0029299736302373,0.0686602588490162
0.0034183025686102,0.0708690945224749
0.0039066315069831,0.0686991157175957
0.0043949604453559,0.0706710164675287
0.0048832893837288,0.0765694169158288
0.0053716183221017,0.0772621903070081
0.0058599472604746,0.0668451733386568
0.0063482761988475,0.0519731209857175
0.0068366051372204,0.0419509494154506
0.0073249340755933,0.0368429986204644
0.0078132630139662,0.029955504727074
0.008301591952339,0.0135878777337402
0.0087899208907119,0.0135010668854574
0.0092782498290848,0.0393908082574831
0.0097665787674577,0.0539083460900211
0.0102549077058306,0.0609651262950013
0.0107432366442035,0.0668160092090189
0.0112315655825764,0.0714478751785862
0.0117198945209493,0.0721348702049285
0.0122082234593221,0.0721931431034299
0.012696552397695,0.0750645296480232
0.0131848813360679,0.0765294328329771
0.0136732102744408,0.0749513694687492
0.0141615392128137,0.0702565563486321
0.0146498681511866,0.0610432794192782
0.0151381970895595,0.0477308843222597
0.0156265260279324,0.0300125788266868
0.0161148549663053,0.0117581938687553
0.0166031839046781,0.0031017430417792
0.017091512843051,0.0155733406077817
0.0175798417814239,0.0259580718717442
0.0180681707197968,0.0368212610293343
0.0185564996581697,0.0495276174270662
0.0190448285965426,0.061158842781221
0.0195331575349155,0.0701173314902429
0.0200214864732884,0.0757840445732934
0.0205098154116612,0.080933503695191
0.0209981443500341,0.085312137492131
0.021486473288407,0.0804763088163836
0.0219748022267799,0.0673699204934603
0.0224631311651528,0.058588792486954
0.0229514601035257,0.0590650148906577
0.0234397890418986,0.0575780215745746
0.0239281179802715,0.0438105952276785
0.0244164469186443,0.0261276894381206
0.0249047758570172,0.01127363238415
0.0253931047953901,0.0061900009301412
0.025881433733763,0.0234068825786015
0.0263697626721359,0.0358531196658828
0.0268580916105088,0.0478466975042443
0.0273464205488817,0.0614407136137665
0.0278347494872546,0.0732176942613536
0.0283230784256275,0.0774381192570134
0.0288114073640003,0.0744664699816528
0.0292997363023732,0.0707997717453021
0.0297880652407461,0.0678208198004959
0.030276394179119,0.0651046697179523
0.0307647231174919,0.062047638189794
0.0312530520558648,0.0565306221468721
0.0317413809942377,0.0477176826169103
0.0322297099326106,0.0341560486703648
0.0327180388709834,0.0181433702734573
0.0332063678093563,0.0039378552720041
0.0336946967477292,0.0059088847954303
0.0341830256861021,0.0130894563414529
0.034671354624475,0.0273391657096504
0.0351596835628479,0.0471345752625668
0.0356480125012208,0.0596633463299374
0.0361363414395937,0.0645416503725174
0.0366246703779666,0.0667264728101078
0.0371129993163394,0.0701468288473288
0.0376013282547123,0.0774270222515109
0.0380896571930852,0.0814366847998651
0.0385779861314581,0.0769782081353862
0.039066315069831,0.0660894494466663
0.0395546440082039,0.0526394498381213
0.0400429729465768,0.0428534073798313
0.0405313018849497,0.0381927919279447
0.0410196308233225,0.0318892056152499
0.0415079597616954,0.0149528676088823
0.0419962887000683,0.007743621568283
0.0424846176384412,0.0211966062037927
0.0429729465768141,0.0268017931646341
0.043461275515187,0.0358176888933151
0.0439496044535599,0.0497631522179254
0.0444379333919328,0.0612010380263248
0.0449262623303056,0.0660377160152825
0.0454145912686785,0.0713978711316729
0.0459029202070514,0.0798623026322747
0.0463912491454243,0.0821475279872356
0.0468795780837972,0.0760430688380203
0.0473679070221701,0.0685815465012698
0.047856235960543,0.0615921438560388
0.0483445648989159,0.0526380500100834
0.0488328938372887,0.0423712941694911
0.0493212227756616,0.031325131012303
0.0498095517140345,0.0164977655164181
0.0502978806524074,0.0021379461009994
0.0507862095907803,0.0194316352303684
0.0512745385291532,0.0307436122614896
0.0517628674675261,0.0379116933505348
0.052251196405899,0.0492642609641691
0.0527395253442719,0.0633315600707638
0.0532278542826447,0.0698914583560627
0.0537161832210176,0.0718111575720109
0.0542045121593905,0.0751857997232343
0.0546928410977634,0.0769415224013423
0.0551811700361363,0.0761072052604775
0.0556694989745092,0.0732996340803805
0.0561578279128821,0.0667833838235946
0.056646156851255,0.0558194504369117
0.0571344857896278,0.0425644845782261
0.0576228147280007,0.0301405451721764
0.0581111436663736,0.0159328322602367
0.0585994726047465,0.0025151282878761
0.0590878015431194,0.0189418342549642
0.0595761304814923,0.0300540646533709
0.0600644594198652,0.0392513873319815
0.0605527883582381,0.0485632867034467
0.061041117296611,0.0590020705309527
0.0615294462349838,0.0707934534741728
0.0620177751733567,0.0814929234863474
0.0625061041117296,0.0852718140354461
0.0629944330501025,0.0821599760197726
0.0634827619884754,0.0783623941867722
0.0639710909268483,0.0725468713945743
0.0644594198652212,0.0634020963686074
0.0649477488035941,0.0537929512031716
0.0654360777419669,0.0417091813982715
0.0659244066803398,0.0253874610346471
0.0664127356187127,0.0082444770028025
0.0669010645570856,0.0046500572323912
0.0673893934954585,0.0159438967769494
0.0678777224338314,0.0314808744055989
0.0683660513722043,0.0449118924910642
0.0688543803105772,0.053629243646367
0.06934270924895,0.0661716590744366
0.0698310381873229,0.0785478874621308
0.0703193671256958,0.08190654309466
0.0708076960640687,0.078465957444943
0.0712960250024416,0.0740670316014197
0.0717843539408145,0.0741297387545796
0.0722726828791874,0.075265245014572
0.0727610118175603,0.069348762362292
0.0732493407559332,0.0594496855559499
0.073737669694306,0.0485997346205553
0.0742259986326789,0.0334691924269506
0.0747143275710518,0.0174839917612101
0.0752026565094247,0.0058859410766666
0.0756909854477976,0.0029185482410265
0.0761793143861705,0.0123100797930439
0.0766676433245434,0.0247271003690794
0.0771559722629163,0.0413484941418453
0.0776443012012891,0.059757491620256
0.078132630139662,0.0734167525899003
0.0786209590780349,0.0789773645313062
0.0791092880164078,0.0791332739230682
0.0795976169547807,0.0756539472684263
0.0800859458931536,0.071845899239926
0.0805742748315265,0.0687715079076026
0.0810626037698994,0.0630977522090042
0.0815509327082723,0.0579762198498686
0.0820392616466451,0.0533851617404525
0.082527590585018,0.0422221303781516
0.0830159195233909,0.0225016008401876
0.0835042484617638,0.0006408939950819
0.0839925774001367,0.0154254168209211
0.0844809063385096,0.0195759244196494
0.0849692352768825,0.026479316304452
0.0854575642152554,0.0402728082936458
0.0859458931536282,0.0554228653550834
0.0864342220920011,0.0689818524299597
0.086922551030374,0.0758040610599381
0.0874108799687469,0.0763177331705221
0.0878992089071198,0.0777933412583048
0.0883875378454927,0.080374811319061
0.0888758667838656,0.0780846300135179
0.0893641957222385,0.0676841312989252
0.0898525246606113,0.0547443854163041
0.0903408535989842,0.0462620824728793
0.0908291825373571,0.0383853113307681
0.09131751147573,0.0265263044631275
0.0918058404141029,0.0136907981021171
0.0922941693524758,0.0003850387308279
0.0927824982908487,0.0159329566349174
0.0932708272292216,0.0344107140058474
0.0937591561675944,0.0503685015380128
0.0942474851059673,0.0595486810614485
0.0947358140443402,0.0659103258453965
0.0952241429827131,0.0727127731813516
0.095712471921086,0.0769659188042222
0.0962008008594589,0.0814518110434016
0.0966891297978318,0.0863094046974229
0.0971774587362047,0.0855534429949703
0.0976657876745775,0.0770379153172538
0.0981541166129504,0.0635038940956519
0.0986424455513233,0.0533300253092346
0.0991307744896962,0.0467393681201034
0.0996191034280691,0.0351926029698562
0.100107432366442,0.0189604685737479
0.1005957613048149,0.0028224104125717
0.1010840902431878,0.0116079389373479
0.1015724191815607,0.0252552555319408
0.1020607481199335,0.0392289838008259
0.1025490770583064,0.0523015117287106
0.1030374059966793,0.0616253165380224
0.1035257349350522,0.0652379263337572
0.1040140638734251,0.0678260590268868
0.104502392811798,0.0748384633088643
0.1049907217501709,0.0819535576969979
0.1054790506885438,0.0826428684119328
0.1059673796269166,0.0783891790975476
0.1064557085652895,0.0743290069549384
0.1069440375036624,0.0679518444973637
0.1074323664420353,0.0555408051517814
0.1079206953804082,0.0423870874605202
0.1084090243187811,0.0285120779034517
0.108897353257154,0.0087300970637826
0.1093856821955269,0.0130850671829809
0.1098740111338997,0.0311211656684062
0.1103623400722726,0.0450311609025908
0.1108506690106455,0.0556399612941283
0.1113389979490184,0.0620737376050964
0.1118273268873913,0.0677825579099956
0.1123156558257642,0.0773169492907854
0.1128039847641371,0.086281287488719
0.11329231370251,0.0883934423839894
0.1137806426408829,0.0829456780770859
0.1142689715792557,0.0734615251975318
0.1147573005176286,0.0633591969706831
0.1152456294560015,0.0534292330944345
0.1157339583943744,0.0439070487012998
0.1162222873327473,0.03478862498523
0.1167106162711202,0.0259275179045747
0.1171989452094931,0.0147960419826576
0.117687274147866,0.0021039849444161
0.1181756030862389,0.0217478936818291
0.1186639320246117,0.0370772944212705
0.1191522609629846,0.0455496520644095
0.1196405899013575,0.0531553309205645
0.1201289188397304,0.0647789799817904
0.1206172477781033,0.0751480155851002
0.1211055767164762,0.0799607264700554
0.1215939056548491,0.0798674031770077
0.122082234593222,0.0785964599867032
0.1225705635315948,0.0783776611155638
0.1230588924699677,0.0718839290215145
0.1235472214083406,0.0571603607390813
0.1240355503467135,0.0413036900418753
0.1245238792850864,0.0271109124444231
0.1250122082234593,0.0142317512441349
0.1255005371618322,0.0006448930807805
0.1259888661002051,0.012082255048166
0.126477195038578,0.0215789488047104
0.1269655239769508,0.033639060901671
0.1274538529153237,0.0505855581068714
0.1279421818536966,0.0664008279033046
0.1284305107920695,0.0737680214113215
0.1289188397304424,0.0740885067809971
0.1294071686688153,0.0779849026851956
0.1298954976071882,0.0860600837190776
0.130383826545561,0.0865998528714276
0.1308721554839339,0.0721868092693618
0.1313604844223068,0.0543884500749102
0.1318488133606797,0.0501639047626074
0.1323371422990526,0.0531022354508748
0.1328254712374255,0.0461055250589345
0.1333138001757984,0.0274955056813012
0.1338021291141713,0.0080528626083413
0.1342904580525442,0.0071560276347219
0.134778786990917,0.0216073142315119
0.1352671159292899,0.0352176335349406
0.1357554448676628,0.0477217873123936
0.1362437738060357,0.0597221193511281
0.1367321027444086,0.0686259361935347
0.1372204316827815,0.0740405574599838
0.1377087606211544,0.0755008483812296
0.1381970895595273,0.0740965920162825
0.1386854184979001,0.0732935265460833
0.139173747436273,0.0720788407470629
0.1396620763746459,0.0680292272073794
0.1401504053130188,0.0592911174681504
0.1406387342513917,0.0462378519894586
0.1411270631897646,0.0337343660926409
0.1416153921281375,0.0238814492941288
0.1421037210665104,0.0122180538359378
0.1425920500048833,0.0049928151357892
0.1430803789432561,0.0230743886371567
0.143568707881629,0.038205831492883
0.1440570368200019,0.0529664203390325
0.1445453657583748,0.0638642296010854
0.1450336946967477,0.0668738087005833
0.1455220236351206,0.0676292383518439
0.1460103525734935,0.0717164551685631
0.1464986815118664,0.0774847884407525
0.1469870104502393,0.0810078324824996
0.1474753393886121,0.0823488000664609
0.147963668326985,0.0795117027188715
0.1484519972653579,0.0678455768990789
0.1489403262037308,0.0509620546472804
0.1494286551421037,0.0350828494001865
0.1499169840804766,0.0238880480911551
0.1504053130188495,0.0164697889219302
0.1508936419572223,0.0047845803458009
0.1513819708955952,0.0129710814419839
0.1518702998339681,0.0332294584558929
0.152358628772341,0.0523878163453718
0.1528469577107139,0.0641241382806319
0.1533352866490868,0.0689595202555333
0.1538236155874597,0.0737699405837823
0.1543119445258326,0.0814694903765659
0.1548002734642055,0.086889385378698
0.1552886024025783,0.0862405091579885
0.1557769313409512,0.0850821312396954
0.1562652602793241,0.0825150679298908
0.156753589217697,0.0716065249088731
0.1572419181560699,0.0542659088092045
0.1577302470944428,0.0380906032281091
0.1582185760328157,0.0274053658933045
0.1587069049711885,0.0171878292276407
0.1591952339095614,0.0041389359972871
0.1596835628479343,0.0078582486067808
0.1601718917863072,0.0201749408455096
0.1606602207246801,0.0357784001268511
0.161148549663053,0.0517441322103882
0.1616368786014259,0.0625107033143166
0.1621252075397988,0.0687019447785632
0.1626135364781717,0.0760388057169084
0.1631018654165446,0.0806791452960634
0.1635901943549174,0.0766106910711513
0.1640785232932903,0.0697398274896894
0.1645668522316632,0.0666940819000647
0.1650551811700361,0.063972243027419
0.165543510108409,0.0561958790506132
0.1660318390467819,0.0442161768779367
0.1665201679851548,0.0308398003176341
0.1670084969235276,0.017265118907146
0.1674968258619005,0.0024715920410893
0.1679851548002734,0.0144623023314597
0.1684734837386463,0.0274375678770587
0.1689618126770192,0.0327417297183609
0.1694501416153921,0.0411527503320392
0.169938470553765,0.0591600181720522
0.1704267994921379,0.0755276405875226
0.1709151284305108,0.0826196670239752
0.1714034573688836,0.0843870497532513
0.1718917863072565,0.0811842481257154
0.1723801152456294,0.073718334061621
0.1728684441840023,0.0683962832559132
0.1733567731223752,0.0653986174687736
0.1738451020607481,0.0588368172169801
0.174333430999121,0.0477955780469996
0.1748217599374938,0.0369055891398878
0.1753100888758667,0.0257789593992262
0.1757984178142396,0.0100594699001943
0.1762867467526125,0.0056134213748508
0.1767750756909854,0.0165901658609495
0.1772634046293583,0.029915347905575
0.1777517335677312,0.048767350744366
0.1782400625061041,0.0645598619010007
0.178728391444477,0.0732549909605435
0.1792167203828499,0.0805862206439388
0.1797050493212227,0.0847716617055224
0.1801933782595956,0.0796450078892172
0.1806817071979685,0.0719384198979561
0.1811700361363414,0.0676771932551644
0.1816583650747143,0.0634094120852768
0.1821466940130872,0.0557862094686079
0.1826350229514601,0.044579879717023
0.1831233518898329,0.0331797696383049
0.1836116808282058,0.0219759129735291
0.1841000097665787,0.0099436999445314
0.1845883387049516,0.003280210849686
0.1850766676433245,0.0214503401755096
0.1855649965816974,0.0405116654336015
0.1860533255200703,0.0540922041507582
0.1865416544584432,0.0652682593950831
0.1870299833968161,0.0742025215859768
0.1875183123351889,0.0780770576548778
0.1880066412735618,0.0772942717920332
0.1884949702119347,0.0735814577134417
0.1889832991503076,0.0716535472792757
0.1894716280886805,0.0721570429082046
0.1899599570270534,0.0692818814726661
0.1904482859654263,0.0588861948019524
0.1909366149037992,0.0450190230885543
0.1914249438421721,0.0353910797802765
0.1919132727805449,0.0243227503644679
0.1924016017189178,0.005297822071426
0.1928899306572907,0.0123454743487869
0.1933782595956636,0.0236711050932813
0.1938665885340365,0.0344984298077268
0.1943549174724094,0.0474940928802388
0.1948432464107823,0.0583980606393053
0.1953315753491551,0.0637302877739352
0.195819904287528,0.0684745481949828
0.1963082332259009,0.0766974732181863
0.1967965621642738,0.0842384409227637
0.1972848911026467,0.0854319446400745
0.1977732200410196,0.0781109440467485
0.1982615489793925,0.0677653523017504
0.1987498779177654,0.0602698430899751
0.1992382068561383,0.0539260710275842
0.1997265357945112,0.0464057724437976
0.200214864732884,0.0340849559042066
0.2007031936712569,0.0159625619198072
0.2011915226096298,0.0015283265299453
0.2016798515480027,0.0165345648082311
0.2021681804863756,0.0327494409849293
0.2026565094247485,0.0496446774446924
0.2031448383631214,0.0619954460774884
0.2036331673014942,0.0692663883312814
0.2041214962398671,0.0755419042218822
0.20460982517824,0.0784406659702634
0.2050981541166129,0.0759131011395887
0.2055864830549858,0.0741573520417754
0.2060748119933587,0.0745098901606657
0.2065631409317316,0.0710906631297575
0.2070514698701045,0.0646271008074203
0.2075397988084774,0.0563495493513904
0.2080281277468502,0.0420854305721495
0.2085164566852231,0.0262060818804346
0.209004785623596,0.0136240709429655
0.2094931145619689,0.0004236972035336
0.2099814435003418,0.0180574349770929
0.2104697724387147,0.0348274913100633
0.2109581013770876,0.0450922373362247
0.2114464303154604,0.0504347401962462
0.2119347592538333,0.0581323486767706
0.2124230881922062,0.0687186318226487
0.2129114171305791,0.0754820975114275
0.213399746068952,0.0745774292169866
0.2138880750073249,0.0717302385580931
0.2143764039456978,0.0722724574910174
0.2148647328840707,0.0722081147516466
0.2153530618224436,0.0668617490425654
0.2158413907608165,0.0564971412289385
0.2163297196991893,0.0450537368546237
0.2168180486375622,0.033198152211464
0.2173063775759351,0.0172409940574123
0.217794706514308,1.049112149706247e-05
0.2182830354526809,0.0142275128912484
0.2187713643910538,0.0281360441025222
0.2192596933294266,0.0439120362717698
0.2197480222677995,0.0578957854749144
0.2202363512061724,0.0663929672326103
0.2207246801445453,0.0715996352977791
0.2212130090829182,0.0743378811041387
0.2217013380212911,0.0726519246913938
0.222189666959664,0.0708500765754416
0.2226779958980369,0.0715670256349541
0.2231663248364098,0.0692328886611588
0.2236546537747827,0.0604355434661819
0.2241429827131555,0.0505170316652002
0.2246313116515284,0.0438777607325087
0.2251196405899013,0.0348018476680764
0.2256079695282742,0.0211311477877428
0.2260962984666471,0.0053768000788703
0.22658462740502,0.0140973197085206
0.2270729563433929,0.0304619998494789
0.2275612852817658,0.0377498622099861
0.2280496142201386,0.0428794541730726
0.2285379431585115,0.0509860249512102
0.2290262720968844,0.0620214483773456
0.2295146010352573,0.0699214762132142
0.2300029299736302,0.0713317856096674
0.2304912589120031,0.0763743908982456
0.230979587850376,0.0832105973150147
0.2314679167887489,0.0774056190403432
0.2319562457271217,0.0631652556977516
0.2324445746654946,0.0525828375617898
0.2329329036038675,0.0452701733031988
0.2334212325422404,0.0350672933247222
0.2339095614806133,0.0221320708677681
0.2343978904189862,0.0109400299360976
0.2348862193573591,0.0018024861852981
0.235374548295732,0.02225986316764
0.2358628772341049,0.0464493745902738
0.2363512061724778,0.0604348747542231
0.2368395351108506,0.0603879154867648
0.2373278640492235,0.0627272558264215
0.2378161929875964,0.0743127136249153
0.2383045219259693,0.0830115080404148
0.2387928508643422,0.084548536967358
0.2392811798027151,0.0816683820128723
0.239769508741088,0.0724886550063643
0.2402578376794608,0.0607417506296383
0.2407461666178337,0.0553413130767068
0.2412344955562066,0.0537026581283523
0.2417228244945795,0.0456235197597545
0.2422111534329524,0.027453906372269
0.2426994823713253,0.0034458227129966
0.2431878113096982,0.0136095233580097
0.2436761402480711,0.0187321185603245
0.244164469186444,0.0265537876805272
0.2446527981248168,0.0422120655863767
0.2451411270631897,0.0546986074658923
0.2456294560015626,0.0635254457135207
0.2461177849399355,0.0745266848415987
0.2466061138783084,0.0832880849685072
0.2470944428166813,0.0846617178886234
0.2475827717550542,0.0813679799192317
0.248071100693427,0.073716203519898
0.2485594296317999,0.0629283022294735
0.2490477585701728,0.0548001658317026
0.2495360875085457,0.0479502736333868
0.2500244164469186,0.040419244558023
0.2505127453852915,0.0321006357050269
0.2510010743236644,0.01751104962961
0.2514894032620373,0.0028526026683718
0.2519777322004102,0.0206016405363763
0.252466061138783,0.033578498845868
0.252954390077156,0.0455236584194366
0.2534427190155288,0.0558506940411342
0.2539310479539017,0.0621030644933973
0.2544193768922746,0.0673310638533906
0.2549077058306475,0.0747705345154156
0.2553960347690204,0.0798244668260988
0.2558843637073933,0.0768331292086811
0.2563726926457662,0.0700942490663011
0.2568610215841391,0.0667762525701356
0.2573493505225119,0.0622140161298869
0.2578376794608848,0.0483642271059035
0.2583260083992577,0.0317102120593906
0.2588143373376306,0.0204230917855155
0.2593026662760035,0.0080174454139595
0.2597909952143764,0.0089418477512072
0.2602793241527493,0.0208044361007079
0.2607676530911221,0.0261241898712939
0.261255982029495,0.0377165177853958
0.2617443109678679,0.05794075195181
0.2622326399062408,0.0727298159594561
0.2627209688446137,0.0769069996406882
0.2632092977829866,0.0785607801052107
0.2636976267213595,0.0813429373951437
0.2641859556597324,0.0814304403129241
0.2646742845981052,0.0769191118439051
0.2651626135364782,0.0716625558252014
0.265650942474851,0.0637516341749463
0.2661392714132239,0.05093025441824
0.2666276003515968,0.0414902361669203
0.2671159292899697,0.0351600020081995
0.2676042582283426,0.0245382781854318
0.2680925871667154,0.0076554611567026
0.2685809161050884,0.0147281681949803
0.2690692450434612,0.0317507009426223
0.2695575739818341,0.0376490575625713
0.270045902920207,0.0451688781826545
0.2705342318585799,0.0599631816316105
0.2710225607969528,0.0728346079663632
0.2715108897353257,0.0763445098652456
0.2719992186736986,0.0738282861489689
0.2724875476120715,0.072139070082506
0.2729758765504443,0.0705113076752957
0.2734642054888173,0.0664813869867777
0.2739525344271901,0.0605824125049246
0.274440863365563,0.0538434885735433
0.2749291923039359,0.0452955256040107
0.2754175212423088,0.0320147513087706
0.2759058501806817,0.0177129616665236
0.2763941791190546,0.0064476921876576
0.2768825080574275,0.0077764868867653
0.2773708369958003,0.0271078448806649
0.2778591659341732,0.044691763868842
0.2783474948725461,0.0572058524603791
0.278835823810919,0.0663592594533356
0.2793241527492919,0.0730658806177807
0.2798124816876648,0.0761710232936659
0.2803008106260377,0.0773158472861553
0.2807891395644106,0.079377830410384
0.2812774685027834,0.0780882171964151
0.2817657974411564,0.0703512906759628
0.2822541263795292,0.0610102785177452
0.2827424553179021,0.0528058429938419
0.283230784256275,0.0466297669481295
0.2837191131946479,0.0395833073186391
0.2842074421330208,0.0245877310087237
0.2846957710713937,0.00554304917498
0.2851841000097666,0.0092381945584187
0.2856724289481395,0.0192724500921021
0.2861607578865123,0.0302589177976176
0.2866490868248852,0.049069420771804
0.2871374157632581,0.0681277852324877
0.287625744701631,0.0757955080430104
0.2881140736400039,0.0767194176136969
0.2886024025783767,0.0777783902707074
0.2890907315167497,0.0809599262797657
0.2895790604551225,0.0848600031996405
0.2900673893934954,0.0826190094401332
0.2905557183318683,0.0729555820941927
0.2910440472702412,0.0604531931303071
0.2915323762086141,0.0467233018577475
0.292020705146987,0.0326318411742073
0.2925090340853599,0.0199794135027709
0.2929973630237328,0.0100571529408397
0.2934856919621056,0.0017096714600241
0.2939740209004786,0.020571994095842
0.2944623498388514,0.0356186628527514
0.2949506787772243,0.0404723211469565
0.2954390077155972,0.0492448944351472
0.2959273366539701,0.0637144941774869
0.296415665592343,0.0718011336808295
0.2969039945307158,0.073643198247537
0.2973923234690888,0.0740346700575559
0.2978806524074616,0.0713124723608693
0.2983689813458345,0.0649014563559781
0.2988573102842074,0.0602535106148016
0.2993456392225803,0.05719909978761
0.2998339681609532,0.047337397542733
0.3003222970993261,0.0343314297820803
0.300810626037699,0.0251519632499921
0.3012989549760719,0.0138912151286398
0.3017872839144447,0.0041562906636879
0.3022756128528177,0.0270312724394657
0.3027639417911905,0.043611008287904
0.3032522707295634,0.0456910937053959
0.3037405996679363,0.0486912418219294
0.3042289286063092,0.0608747080949651
0.3047172575446821,0.0690159122481977
0.3052055864830549,0.0740779423536225
0.3056939154214279,0.0821189552525664
0.3061822443598007,0.0846839424823454
0.3066705732981736,0.0791466693368555
0.3071589022365465,0.0715270470434942
0.3076472311749194,0.0630490876468697
0.3081355601132923,0.0509676175580772
0.3086238890516652,0.0388207104627606
0.3091122179900381,0.0307297324171612
0.309600546928411,0.0172661568382869
0.3100888758667838,0.0043464722896621
0.3105772048051567,0.022356613686422
0.3110655337435296,0.0354846485145095
0.3115538626819025,0.0486743009201825
0.3120421916202754,0.0595768441544372
0.3125305205586483,0.0681074684550907
0.3130188494970212,0.0765135500640996
0.313507178435394,0.0797926207305861
0.3139955073737669,0.0759787999321591
0.3144838363121398,0.0718817065111489
0.3149721652505127,0.0714877606662802
0.3154604941888856,0.0731971962789041
0.3159488231272585,0.0698755695100613
0.3164371520656314,0.0559972610105734
0.3169254810040043,0.0384225559904573
0.3174138099423771,0.0253568898168383
0.3179021388807501,0.0153985606685498
0.3183904678191229,0.0027185235553076
0.3188787967574958,0.0152636408137136
0.3193671256958687,0.0336767751701567
0.3198554546342416,0.0476176800468459
0.3203437835726145,0.058638410065033
0.3208321125109874,0.0688097016524836
0.3213204414493603,0.0783787835434406
0.3218087703877331,0.0847721695606754
0.322297099326106,0.0831147399697175
0.3227854282644789,0.0766347128354787
0.3232737572028518,0.0757575340341415
0.3237620861412247,0.0808848706854156
0.3242504150795976,0.0782457659053433
0.3247387440179705,0.0612527336059831
0.3252270729563434,0.0424307710360849
0.3257154018947162,0.0292410370738924
0.3262037308330892,0.0139040192323441
0.326692059771462,0.0042231057039465
0.3271803887098349,0.0196605145225378
0.3276687176482078,0.0324451876845676
0.3281570465865807,0.0418190007389195
0.3286453755249536,0.0491617755914328
0.3291337044633265,0.0580840524409127
0.3296220334016994,0.0674149039175995
0.3301103623400723,0.0763530557536363
0.3305986912784451,0.0829262263260938
0.331087020216818,0.0844115401772838
0.3315753491551909,0.0816607076716613
0.3320636780935638,0.0729235487222276
0.3325520070319367,0.0632811830570969
0.3330403359703096,0.0612322603143776
0.3335286649086825,0.0559998203199207
0.3340169938470553,0.0373527044182268
0.3345053227854282,0.0144575225902389
0.3349936517238011,0.0050676726977246
0.335481980662174,0.0213908841817616
0.3359703096005469,0.0333485508887563
0.3364586385389198,0.0390654372071249
0.3369469674772927,0.0412694737075337
0.3374352964156656,0.0471397444701113
0.3379236253540384,0.0556259291941092
0.3384119542924114,0.0613240526246911
0.3389002832307842,0.0699486782433366
0.3393886121691571,0.0816422007577267
0.33987694110753,0.0851279640163419
0.3403652700459029,0.0793438484517357
0.3408535989842758,0.0696680333218147
0.3413419279226486,0.0584058492779786
0.3418302568610216,0.047631272508161
0.3423185857993944,0.0356256741615156
0.3428069147377673,0.0212821720315016
0.3432952436761402,0.0067967425430791
0.3437835726145131,0.0103519265852907
0.344271901552886,0.0277756642356575
0.3447602304912589,0.0375586679468863
0.3452485594296318,0.0422791139942241
0.3457368883680047,0.0493339551823813
0.3462252173063775,0.0614267001669334
0.3467135462447505,0.0728784781110621
0.3472018751831233,0.0756115028183612
0.3476902041214962,0.0735117525018799
0.3481785330598691,0.0736574132023242
0.348666861998242,0.0750240275355831
0.3491551909366149,0.0742644976197831
0.3496435198749877,0.0668528535012714
0.3501318488133607,0.0522807510525772
0.3506201777517335,0.0397340900798617
0.3511085066901064,0.0312091089576717
0.3515968356284793,0.0196417517957484
0.3520851645668522,0.0030497982968628
0.3525734935052251,0.0183264532714435
0.353061822443598,0.0384175486444616
0.3535501513819709,0.0521050909268162
0.3540384803203438,0.063993941265079
0.3545268092587166,0.0720952380898424
0.3550151381970896,0.0755417048178826
0.3555034671354624,0.0821158957004919
0.3559917960738353,0.0860111722551896
0.3564801250122082,0.0792596378742619
0.3569684539505811,0.0702506793917221
0.357456782888954,0.0643211799065334
0.3579451118273268,0.0585972040015526
0.3584334407656998,0.0501001509855759
0.3589217697040726,0.0359452667688293
0.3594100986424455,0.0201428010274051
0.3598984275808184,0.0075116333354278
0.3603867565191913,0.0047268234641666
0.3608750854575642,0.0175098677922429
0.3613634143959371,0.0300727130117301
0.3618517433343099,0.0439826080806407
0.3623400722726829,0.058518436928574
0.3628284012110557,0.0705615470442463
0.3633167301494286,0.0774694072119375
0.3638050590878015,0.0809877658150676
0.3642933880261744,0.0823599312324963
0.3647817169645473,0.0780744558921755
0.3652700459029202,0.0687471192096283
0.3657583748412931,0.059922532280746
0.3662467037796659,0.0566059133725807
0.3667350327180388,0.0545420407091386
0.3672233616564117,0.043390733796872
0.3677116905947846,0.0271284045613696
0.3682000195331575,0.012549498267567
0.3686883484715304,0.0049955768046622
0.3691766774099033,0.0236688866490063
0.3696650063482762,0.0369857330420132
0.370153335286649,0.0465667008502291
0.370641664225022,0.0558362861866745
0.3711299931633948,0.0643588804627187
0.3716183221017677,0.0704776423049052
0.3721066510401406,0.0731444237367906
0.3725949799785135,0.0726267487010337
0.3730833089168864,0.0739067441269749
0.3735716378552593,0.0780406654581555
0.3740599667936322,0.0736197565995903
0.3745482957320051,0.0580338138480754
0.3750366246703779,0.0452579043933953
0.3755249536087508,0.0371016610012888
0.3760132825471237,0.0243602678213103
0.3765016114854966,0.0092962284209318
0.3769899404238695,0.0041774151102555
0.3774782693622424,0.0175166121387027
0.3779665983006153,0.0300795226574875
0.3784549272389881,0.0429085131235378
0.3789432561773611,0.0556610523706995
0.3794315851157339,0.0647736235013467
0.3799199140541068,0.0718824025375336
0.3804082429924797,0.0779340105933719
0.3808965719308526,0.0802533252189812
0.3813849008692255,0.0803800005100357
0.3818732298075984,0.0803297900573056
0.3823615587459713,0.0756114995648889
0.3828498876843442,0.0618331068288041
0.383338216622717,0.046705529386044
0.3838265455610899,0.0381839436810414
0.3843148744994628,0.0298783376988222
0.3848032034378357,0.0163885181604476
0.3852915323762086,0.0023706263422157
0.3857798613145815,0.0068751758716283
0.3862681902529544,0.0172765832600455
0.3867565191913272,0.0380139771858934
0.3872448481297001,0.0588307886346857
0.387733177068073,0.0684745808801787
0.3882215060064459,0.0738880489345858
0.3887098349448188,0.078823641518868
0.3891981638831917,0.0801722109828865
0.3896864928215646,0.0789277532606871
0.3901748217599375,0.0783316588551205
0.3906631506983103,0.0780885375580182
0.3911514796366833,0.0700805542645888
0.3916398085750561,0.0532148364039375
0.392128137513429,0.0411429001864167
0.3926164664518019,0.037236902673333
0.3931047953901748,0.0301075074610179
0.3935931243285477,0.0128391416024397
0.3940814532669205,0.0115695224729171
0.3945697822052935,0.0306490132240881
0.3950581111436663,0.0370158002083122
0.3955464400820392,0.0413195093929221
0.3960347690204121,0.0556284951970713
0.396523097958785,0.0761662351097312
0.3970114268971579,0.0902489294346124
0.3974997558355308,0.0938759915932783
0.3979880847739037,0.0912060652384398
0.3984764137122766,0.0848745704952655
0.3989647426506494,0.0783051741299076
0.3994530715890224,0.0728072145341864
0.3999414005273952,0.0640779044472868
0.4004297294657681,0.0502311579253437
0.400918058404141,0.0346379439071437
0.4014063873425139,0.0202030808102228
0.4018947162808868,0.0071933058669456
0.4023830452192596,0.0038054657958223
0.4028713741576326,0.0153246349642257
0.4033597030960054,0.0329712224601281
0.4038480320343783,0.0531090113134492
0.4043363609727512,0.0664684438162686
0.4048246899111241,0.0725384281674266
0.405313018849497,0.0743336927968838
0.4058013477878699,0.0739879221143428
0.4062896767262428,0.0759898836350421
0.4067780056646157,0.0799550492333326
0.4072663346029885,0.0795977305098165
0.4077546635413615,0.0728373965712215
0.4082429924797343,0.0653162614975323
0.4087313214181072,0.0584314828632073
0.4092196503564801,0.0466604207886579
0.409707979294853,0.0316155208605361
0.4101963082332259,0.014925023908793
0.4106846371715988,0.0056588538506915
0.4111729661099716,0.0259212748088546
0.4116612950483445,0.0436793711547001
0.4121496239867174,0.0578436412844218
0.4126379529250903,0.0653940258976527
0.4131262818634632,0.0699956873218641
0.4136146108018361,0.0731066436136424
0.414102939740209,0.074773048938877
0.4145912686785818,0.0789793106412183
0.4150795976169548,0.0819136180403597
0.4155679265553276,0.0791737206481153
0.4160562554937005,0.0726534229946654
0.4165445844320734,0.0639046031005868
0.4170329133704463,0.0538405057869004
0.4175212423088192,0.0387850031806092
0.4180095712471921,0.0192256116048757
0.418497900185565,0.0041578077970218
0.4189862291239379,0.0070141803801949
0.4194745580623107,0.0207098885650539
0.4199628870006836,0.036879808597415
0.4204512159390565,0.0529550131563494
0.4209395448774294,0.0644635805128506
0.4214278738158023,0.0701027914250023
0.4219162027541752,0.0740396957458677
0.4224045316925481,0.0785672811652821
0.4228928606309209,0.0827959025164398
0.4233811895692939,0.084123129872009
0.4238695185076667,0.0814735678588869
0.4243578474460396,0.0732275688212944
0.4248461763844125,0.058939697646362
0.4253345053227854,0.0480864724905267
0.4258228342611583,0.0431345936464221
0.4263111631995312,0.031198583589469
0.4267994921379041,0.0122972487264583
0.427287821076277,0.0017256064545148
0.4277761500146498,0.0121722471907423
0.4282644789530228,0.0256545063069981
0.4287528078913956,0.0407232839272129
0.4292411368297685,0.0532266807495946
0.4297294657681414,0.0617640521640209
0.4302177947065143,0.0683770498209853
0.4307061236448872,0.0740658545780837
0.43119445258326,0.0760699313065963
0.431682781521633,0.0744773557725403
0.4321711104600058,0.0738737511970545
0.4326594393983787,0.0733287518142156
0.4331477683367516,0.0646397604496418
0.4336360972751245,0.0484483129059218
0.4341244262134974,0.0341626827828601
0.4346127551518703,0.0219095063543933
0.4351010840902432,0.0084943363913372
0.4355894130286161,0.004367307775851
0.4360777419669889,0.0157297362175739
0.4365660709053618,0.0249230269725138
0.4370543998437347,0.0343109225942107
0.4375427287821076,0.0469791070159105
0.4380310577204805,0.0608152248920771
0.4385193866588533,0.071698740221985
0.4390077155972263,0.0792223399952714
0.4394960445355991,0.0866360241141561
0.439984373473972,0.0888939784306677
0.4404727024123449,0.080953099531091
0.4409610313507178,0.0734281732609174
0.4414493602890907,0.0678571502725313
0.4419376892274636,0.0524537725793573
0.4424260181658365,0.0324542694897301
0.4429143471042094,0.0227555062297491
0.4434026760425822,0.0247086147217755
0.4438910049809552,0.0231833393959963
0.444379333919328,0.0043294739050562
0.4448676628577009,0.0244166736646861
0.4453559917960738,0.0483013504640024
0.4458443207344467,0.0632656093305473
0.4463326496728196,0.0715521146090836
0.4468209786111924,0.0767967433436654
0.4473093075495654,0.0813110785669656
0.4477976364879382,0.0838010076306893
0.4482859654263111,0.0799483609682466
0.448774294364684,0.0718442429680219
0.4492626233030569,0.0703733827817976
0.4497509522414298,0.0727202127203168
0.4502392811798027,0.0659912878127097
0.4507276101181756,0.0504041015102484
0.4512159390565485,0.0297578135981755
0.4517042679949213,0.010588020039802
0.4521925969332943,0.0014188580777717
0.4526809258716671,0.0058767950261969
0.45316925481004,0.0214132436085887
0.4536575837484129,0.0393054590382985
0.4541459126867858,0.0519646339530904
0.4546342416251587,0.0618612464981084
0.4551225705635316,0.0716640367498726
0.4556108995019045,0.0769753561515796
0.4560992284402773,0.0771430970177139
0.4565875573786502,0.0750734800494808
0.4570758863170231,0.0700603787566908
0.457564215255396,0.0644151306531321
0.4580525441937689,0.0604002217571993
0.4585408731321418,0.0551514137975305
0.4590292020705147,0.0453113425750789
0.4595175310088876,0.0302904803457195
0.4600058599472604,0.0151686932812823
0.4604941888856333,0.0025463198309989
0.4609825178240062,0.0094025860001911
0.4614708467623791,0.0193715382497471
0.461959175700752,0.0305624626059212
0.4624475046391249,0.0455660440442805
0.4629358335774978,0.0586172179028522
0.4634241625158707,0.0710962875900635
0.4639124914542435,0.0852061486703405
0.4644008203926164,0.0905484588202288
0.4648891493309893,0.0831480767658342
0.4653774782693622,0.0755594023801223
0.4658658072077351,0.0744905412184929
0.466354136146108,0.0718469272771434
0.4668424650844809,0.0633643707054589
0.4673307940228537,0.0511551851833369
0.4678191229612267,0.0380304227832221
0.4683074518995995,0.0254330009109331
0.4687957808379724,0.0097301428539975
0.4692841097763453,0.0062196418989576
0.4697724387147182,0.0170794237813937
0.4702607676530911,0.0271131966779715
0.470749096591464,0.0404845214372532
0.4712374255298369,0.0559922364057686
0.4717257544682098,0.0673751231970695
0.4722140834065826,0.0719932862273505
0.4727024123449556,0.0778500169805054
0.4731907412833284,0.0860310211475297
0.4736790702217013,0.0869212145234355
0.4741673991600742,0.077091076218809
0.4746557280984471,0.063799476479359
0.47514405703682,0.0557118692048011
0.4756323859751928,0.0502686158006685
0.4761207149135658,0.0407591690778742
0.4766090438519386,0.0269311638218943
0.4770973727903115,0.0102385024127368
0.4775857017286844,0.0047527735276429
0.4780740306670573,0.0165364245811691
0.4785623596054302,0.0308376613633831
0.4790506885438031,0.0464060066969804
0.479539017482176,0.0583118659384346
0.4800273464205489,0.0683750399065963
0.4805156753589217,0.0765050695724441
0.4810040042972947,0.0791712982389588
0.4814923332356675,0.0793754282555277
0.4819806621740404,0.0806290026430169
0.4824689911124133,0.0775822522888706
0.4829573200507862,0.067707388980297
0.4834456489891591,0.0563621061842294
0.4839339779275319,0.0469189810451111
0.4844223068659049,0.0394344597048763
0.4849106358042777,0.0296879083685875
0.4853989647426506,0.0134495596523316
0.4858872936810235,0.0054807871665533
0.4863756226193964,0.0223799263658093
0.4868639515577693,0.0364978759115576
0.4873522804961422,0.0477931949381182
0.487840609434515,0.0572015761799915
0.488328938372888,0.0644106804722017
0.4888172673112608,0.0683629941508481
0.4893055962496337,0.0717408358992197
0.4897939251880066,0.076572595533462
0.4902822541263795,0.0783968183430603
0.4907705830647524,0.0735374924607381
0.4912589120031252,0.068211296394357
0.4917472409414982,0.0660138165204891
0.492235569879871,0.0592147592171887
0.4927238988182439,0.0471773560128537
0.4932122277566168,0.0371039213426219
0.4937005566949897,0.0268141050512616
0.4941888856333626,0.0109494756462652
0.4946772145717355,0.0074151666083336
0.4951655435101084,0.0228588988660835
0.4956538724484813,0.0380121901299272
0.4961422013868541,0.0553388512680723
0.4966305303252271,0.0664652370800129
0.4971188592635999,0.0682524436490492
0.4976071882019728,0.0707072374776719
0.4980955171403457,0.0785851316981961
0.4985838460787186,0.0835119143957686
0.4990721750170915,0.0798293124213521
0.4995605039554644,0.0746349968220145
0.5000488328938373,0.0701413688537548
0.5005371618322102,0.0580487977700611
0.501025490770583,0.0387920735489826
0.5015138197089559,0.0226131228726743
0.5020021486473288,0.0148387314636195
0.5024904775857018,0.0069342022039601
0.5029788065240746,0.0111337985271712
0.5034671354624475,0.0342998936323111
0.5039554644008204,0.0515641145147467
0.5044437933391933,0.0571965214241416
0.5049321222775661,0.0571193515143993
0.505420451215939,0.0620626276617576
0.505908780154312,0.0716882887833786
0.5063971090926849,0.0787076782424016
0.5068854380310577,0.079444824091291
0.5073737669694306,0.079002253289843
0.5078620959078035,0.0778484214321858
0.5083504248461764,0.0677895434960006
0.5088387537845492,0.0541495453383027
0.5093270827229222,0.0453590968999211
0.5098154116612951,0.0370471956837756
0.5103037405996679,0.0245424300218762
0.5107920695380408,0.0060161663481099
0.5112803984764137,0.0147201611816608
0.5117687274147866,0.0304558495346505
0.5122570563531594,0.039331065317099
0.5127453852915324,0.0438446070194349
0.5132337142299053,0.0540615302985489
0.5137220431682782,0.0731089210954001
0.514210372106651,0.0854199011158381
0.5146987010450239,0.0830538625399893
0.5151870299833968,0.0773482978845581
0.5156753589217697,0.0781380944221277
0.5161636878601426,0.080480724490848
0.5166520167985155,0.0746934230477796
0.5171403457368884,0.0592669661308727
0.5176286746752613,0.0410660027711708
0.5181170036136341,0.0300992441676053
0.518605332552007,0.0263210193414644
0.5190936614903799,0.0186379259003021
0.5195819904287527,0.0020603974895279
0.5200703193671257,0.0197033560154533
0.5205586483054986,0.0396194340248526
0.5210469772438715,0.0522312051004483
0.5215353061822443,0.0585085864854918
0.5220236351206172,0.0624515195746335
0.5225119640589901,0.0667322037624294
0.5230002929973631,0.0712971728974867
0.5234886219357359,0.0755838971777272
0.5239769508741088,0.0770613568790519
0.5244652798124817,0.0720159590255349
0.5249536087508546,0.0642454318654824
0.5254419376892274,0.0570383701225924
0.5259302666276003,0.0473636184771711
0.5264185955659733,0.0364865360892026
0.5269069245043461,0.0256108517236736
0.527395253442719,0.0112010882540079
0.5278835823810919,0.0077622146916306
0.5283719113194648,0.0266886438888578
0.5288602402578376,0.0412643698183912
0.5293485691962105,0.0522924571527952
0.5298368981345835,0.0583928794823106
0.5303252270729564,0.0593768739379229
0.5308135560113292,0.0628926022174105
0.5313018849497021,0.0727058379362995
0.531790213888075,0.0813360700665324
0.5322785428264479,0.0807409519211627
0.5327668717648207,0.0756323796753308
0.5332552007031937,0.0704200450327339
0.5337435296415666,0.0592626629286576
0.5342318585799395,0.045902244152971
0.5347201875183123,0.0349017155690254
0.5352085164566852,0.0194064467666454
0.5356968453950581,0.0038704373854594
0.5361851743334309,0.0041405126535287
0.5366735032718039,0.0123996081556303
0.5371618322101768,0.0264630759128775
0.5376501611485497,0.0402891224640505
0.5381384900869225,0.0498027331518194
0.5386268190252954,0.0610593527435544
0.5391151479636683,0.076287653122125
0.5396034769020412,0.0851808282305018
0.540091805840414,0.082821019550258
0.540580134778787,0.0767246192044102
0.5410684637171599,0.0725822264083763
0.5415567926555328,0.0682215449853295
0.5420451215939056,0.0601683557204609
0.5425334505322785,0.0463115326501896
0.5430217794706514,0.030075511259913
0.5435101084090244,0.0202628532980644
0.5439984373473972,0.0135641163543456
0.5444867662857701,0.0007866420068893
0.544975095224143,0.0153704237823567
0.5454634241625158,0.0311356206492518
0.5459517531008887,0.0457258019595528
0.5464400820392616,0.0560794691251705
0.5469284109776346,0.0615026047061488
0.5474167399160074,0.0660632343727558
0.5479050688543803,0.0732221484659538
0.5483933977927532,0.0776879453484332
0.5488817267311261,0.0747664940388507
0.5493700556694989,0.0704522980958278
0.5498583846078718,0.0697145966491861
0.5503467135462448,0.0681532561971831
0.5508350424846177,0.0580455364350569
0.5513233714229905,0.0413543037297569
0.5518117003613634,0.026377710668739
0.5523000292997363,0.0131850710036261
0.5527883582381092,0.0002083210235664
0.553276687176482,0.0126895746449771
0.553765016114855,0.0251897920482519
0.5542533450532279,0.0386607907914332
0.5547416739916007,0.0517996928096673
0.5552300029299736,0.0621088898966735
0.5557183318683465,0.0708580852419731
0.5562066608067194,0.0778414413506191
0.5566949897450922,0.0772099314187992
0.5571833186834652,0.0756374404614425
0.5576716476218381,0.0806049937818915
0.558159976560211,0.0804481182955196
0.5586483054985838,0.0704871107671738
0.5591366344369567,0.0579213144079064
0.5596249633753296,0.0435397286286511
0.5601132923137025,0.0258950479197799
0.5606016212520754,0.0068067923513999
0.5610899501904483,0.0070051937708427
0.5615782791288212,0.0143070599615174
0.5620666080671941,0.0237212759155221
0.5625549370055669,0.0357361512299536
0.5630432659439398,0.0453008666329447
0.5635315948823127,0.0539382887657161
0.5640199238206856,0.0643723298214685
0.5645082527590585,0.0741576149023577
0.5649965816974314,0.0777202697047378
0.5654849106358043,0.0772512617432983
0.5659732395741771,0.0777306581825496
0.56646156851255,0.0746473602594349
0.566949897450923,0.0658079928378363
0.5674382263892959,0.0552299017534808
0.5679265553276687,0.0443253622254245
0.5684148842660416,0.0314948059346645
0.5689032132044145,0.0145149386257903
0.5693915421427874,0.001849923236921
0.5698798710811602,0.0133729917269837
0.5703682000195331,0.0275693313822164
0.5708565289579061,0.046064605046351
0.571344857896279,0.0600735525720968
0.5718331868346518,0.0679742721145995
0.5723215157730247,0.0731435268420815
0.5728098447113976,0.0761036853517172
0.5732981736497704,0.0766312011434306
0.5737865025881433,0.0758433249833005
0.5742748315265163,0.0748253300861639
0.5747631604648892,0.0723937353193617
0.575251489403262,0.0702584182353947
0.5757398183416349,0.0682159631009165
0.5762281472800078,0.0592286447147411
0.5767164762183807,0.0424140246466788
0.5772048051567535,0.022503605896922
0.5776931340951265,0.0031774854418147
0.5781814630334994,0.0133004200136561
0.5786697919718723,0.026785316444931
0.5791581209102451,0.0376416771952237
0.579646449848618,0.0495642855442443
0.5801347787869909,0.0639268223462456
0.5806231077253637,0.0759356306685074
0.5811114366637367,0.0817603427778487
0.5815997656021096,0.0800854060957162
0.5820880945404825,0.0769842707075358
0.5825764234788553,0.0769542868570551
0.5830647524172282,0.073279097562247
0.5835530813556011,0.064414182775258
0.584041410293974,0.054692736672749
0.5845297392323469,0.045564081866126
0.5850180681707198,0.0381027346819293
0.5855063971090927,0.0303200527344044
0.5859947260474656,0.0162806347517951
0.5864830549858384,0.0054579463811189
0.5869713839242113,0.0260236477495779
0.5874597128625842,0.0409696560106937
0.5879480418009572,0.0561949318039457
0.58843637073933,0.0679467328666984
0.5889246996777029,0.0714290700918873
0.5894130286160758,0.0752529758137337
0.5899013575544486,0.0824248094007941
0.5903896864928215,0.0871487128179179
0.5908780154311944,0.0830638914694922
0.5913663443695674,0.069070188255705
0.5918546733079402,0.0555039026694552
0.5923430022463131,0.0470207348760286
0.592831331184686,0.0385761404209426
0.5933196601230589,0.0291121862545627
0.5938079890614317,0.0190900136803653
0.5942963179998046,0.0089019216659767
0.5947846469381776,0.0025502460169707
0.5952729758765505,0.0184832814320862
0.5957613048149233,0.0374929306446888
0.5962496337532962,0.0512901588542522
0.5967379626916691,0.05423284105253
0.597226291630042,0.0560652290827057
0.5977146205684148,0.0663950857491604
0.5982029495067878,0.0781009696517375
0.5986912784451607,0.0835094102651231
0.5991796073835335,0.0836335848388444
0.5996679363219064,0.0808356684518976
0.6001562652602793,0.0740025552717616
0.6006445941986522,0.0615252574263428
0.601132923137025,0.048230611992587
0.601621252075398,0.0383220193414455
0.6021095810137709,0.0277447257219083
0.6025979099521438,0.013365552714954
0.6030862388905166,0.0018984354517873
0.6035745678288895,0.0154123070464742
0.6040628967672624,0.0303353286744944
0.6045512257056354,0.0477890273711271
0.6050395546440082,0.0601583167253258
0.6055278835823811,0.0657777117575299
0.606016212520754,0.0717120848289972
0.6065045414591269,0.0797229048739099
0.6069928703974997,0.0841358044394097
0.6074811993358726,0.0812440554178954
0.6079695282742456,0.0768886926628367
0.6084578572126184,0.0753486387516885
0.6089461861509913,0.0715616620745244
0.6094345150893642,0.0628125571150959
0.6099228440277371,0.0503788807586092
0.6104111729661099,0.0340424815180327
0.6108995019044828,0.01411451198785
0.6113878308428558,0.0044618328504354
0.6118761597812287,0.0143009054641319
0.6123644887196015,0.0211772657645063
0.6128528176579744,0.0364585707436417
0.6133411465963473,0.0533111405054407
0.6138294755347202,0.0600703969882347
0.614317804473093,0.0595965824264222
0.614806133411466,0.0640443496860056
0.6152944623498389,0.0763883925517323
0.6157827912882118,0.0824496746638363
0.6162711202265846,0.0764782194027598
0.6167594491649575,0.0699237835554394
0.6172477781033304,0.0660986638926851
0.6177361070417032,0.0595867581121504
0.6182244359800761,0.0499684079490027
0.6187127649184491,0.0395207859409981
0.619201093856822,0.0261086356941066
0.6196894227951948,0.005883401306382
0.6201777517335677,0.0145739047072184
0.6206660806719406,0.027248421038299
0.6211544096103135,0.0368084346061351
0.6216427385486863,0.0510397427117762
0.6221310674870593,0.0681366252063108
0.6226193964254322,0.0783850275085008
0.6231077253638051,0.079661731892402
0.6235960543021779,0.0777780610906751
0.6240843832405508,0.0778825054907014
0.6245727121789237,0.0807057094007184
0.6250610411172965,0.0755505127890406
0.6255493700556695,0.0591981815462705
0.6260376989940424,0.0456739037527455
0.6265260279324153,0.0391486171744311
0.6270143568707881,0.0307463194224535
0.627502685809161,0.016983166620563
0.6279910147475339,0.0034856224171975
0.6284793436859069,0.0068933497230547
0.6289676726242797,0.0219474612659988
0.6294560015626526,0.0423220969819154
0.6299443305010255,0.0571281286661779
0.6304326594393984,0.0649344849722293
0.6309209883777712,0.0727978466170881
0.6314093173161441,0.0823790081607671
0.631897646254517,0.087653004279357
0.63238597519289,0.0853206636440384
0.6328743041312628,0.0810290564043372
0.6333626330696357,0.076752077482117
0.6338509620080086,0.0685881234942344
0.6343392909463814,0.0570139268531915
0.6348276198847543,0.045629995224916
0.6353159488231273,0.0344930995634792
0.6358042777615002,0.0176870230574416
0.636292606699873,0.0037103527855879
0.6367809356382459,0.0180076778859741
0.6372692645766188,0.0262677225738228
0.6377575935149917,0.0385304455344667
0.6382459224533645,0.0537270801809181
0.6387342513917375,0.0661701606735501
0.6392225803301104,0.0724376455691984
0.6397109092684833,0.0725667251455389
0.6401992382068561,0.0688187683450304
0.640687567145229,0.0642898015503979
0.6411758960836019,0.0648863138184125
0.6416642250219748,0.0688119201167728
0.6421525539603476,0.0680630852258945
0.6426408828987206,0.0598890376675332
0.6431292118370935,0.0437237338086916
0.6436175407754663,0.0263980149604643
0.6441058697138392,0.0154411541533095
0.6445941986522121,0.0045567865098615
0.645082527590585,0.009199760946891
0.6455708565289578,0.0188895439185873
0.6460591854673308,0.0259523848305537
0.6465475144057037,0.0393494749551177
0.6470358433440766,0.0593704598856915
0.6475241722824494,0.0749943549283667
0.6480125012208223,0.0804638652441658
0.6485008301591952,0.0816902628301252
0.6489891590975682,0.0810515282668314
0.649477488035941,0.076347035632701
0.6499658169743139,0.0689716066816749
0.6504541459126868,0.0617549226908753
0.6509424748510597,0.0559422265937133
0.6514308037894325,0.0478064011184095
0.6519191327278054,0.035155941174618
0.6524074616661784,0.0215058745830733
0.6528957906045512,0.0065919478665536
0.6533841195429241,0.0101576312437199
0.653872448481297,0.0239637649712443
0.6543607774196699,0.0327275878265767
0.6548491063580427,0.0409120744976154
0.6553374352964156,0.0512602558028258
0.6558257642347886,0.0614353015421986
0.6563140931731615,0.0712182674531744
0.6568024221115343,0.0793984470674676
0.6572907510499072,0.0812118851161554
0.6577790799882801,0.0764045463731679
0.658267408926653,0.0683059293674001
0.6587557378650258,0.0611267745333457
0.6592440668033988,0.0581154758439595
0.6597323957417717,0.0539598216236743
0.6602207246801446,0.0429777195802544
0.6607090536185174,0.0279474290070608
0.6611973825568903,0.0113727180393153
0.6616857114952632,0.0053246098051457
0.662174040433636,0.0196536884092949
0.662662369372009,0.0317680366667427
0.6631506983103819,0.0446073220780862
0.6636390272487548,0.0577194084966543
0.6641273561871276,0.0665563430634544
0.6646156851255005,0.0731527743939799
0.6651040140638734,0.079594308786144
0.6655923430022463,0.0827742583022809
0.6660806719406192,0.0852581574895977
0.6665690008789921,0.0855778373970408
0.667057329817365,0.0765760977981828
0.6675456587557379,0.0606373980018136
0.6680339876941107,0.0468790759117881
0.6685223166324836,0.0390713622554862
0.6690106455708565,0.0297004089391928
0.6694989745092295,0.0136935842465996
0.6699873034476023,0.0023289154152586
0.6704756323859752,0.0148203496645816
0.6709639613243481,0.0253291882768384
0.6714522902627209,0.0357699365053037
0.6719406192010938,0.0502830708717932
0.6724289481394667,0.0662412210445024
0.6729172770778397,0.0754737442197545
0.6734056060162125,0.0795099127649
0.6738939349545854,0.0836809950657708
0.6743822638929583,0.083248538190783
0.6748705928313312,0.0779679547528865
0.675358921769704,0.0754841836346631
0.6758472507080769,0.0690653100875356
0.6763355796464499,0.0515847766834571
0.6768239085848228,0.0344583979477844
0.6773122375231956,0.0254083077249801
0.6778005664615685,0.0160375261002372
0.6782888953999414,0.0030106063048369
0.6787772243383142,0.0263493272976808
0.6792655532766871,0.0400102244009787
0.6797538822150601,0.0435174344049745
0.680242211153433,0.0478156409426668
0.6807305400918058,0.0581818894645395
0.6812188690301787,0.0690547932459119
0.6817071979685516,0.0732686777524761
0.6821955269069245,0.0745597258133089
0.6826838558452973,0.0772707852247209
0.6831721847836703,0.0779734164660338
0.6836605137220432,0.075268804716429
0.6841488426604161,0.0696449320992695
0.6846371715987889,0.0604169584864718
0.6851255005371618,0.0456533755141094
0.6856138294755347,0.025086897474261
0.6861021584139076,0.0060520535533211
0.6865904873522805,0.0051832450831333
0.6870788162906534,0.0123632848621288
0.6875671452290263,0.0227788130117466
0.6880554741673991,0.0379766273349586
0.688543803105772,0.052190163278939
0.6890321320441449,0.0609125030603391
0.6895204609825178,0.065802569294797
0.6900087899208907,0.0704297436161454
0.6904971188592636,0.0759553833000545
0.6909854477976365,0.0794105969398953
0.6914737767360094,0.077812109077262
0.6919621056743822,0.0727815762213265
0.6924504346127551,0.0663733713377174
0.692938763551128,0.0602134551147262
0.693427092489501,0.0535638392726715
0.6939154214278738,0.0395760262523219
0.6944037503662467,0.0209833754794284
0.6948920793046196,0.0066181468112066
0.6953804082429925,0.0066486650041205
0.6958687371813653,0.0207811566538118
0.6963570661197382,0.0334856540139034
0.6968453950581112,0.0474101365436551
0.697333723996484,0.0624801109773718
0.6978220529348569,0.0730835488117773
0.6983103818732298,0.0752448219843109
0.6987987108116027,0.072836260993668
0.6992870397499755,0.0729899538137515
0.6997753686883484,0.0768100178148604
0.7002636976267214,0.0786551491349339
0.7007520265650943,0.0722178668559021
0.7012403555034671,0.0605057906458883
0.70172868444184,0.0497201807337181
0.7022170133802129,0.0367627601013852
0.7027053423185858,0.0206060450957534
0.7031936712569586,0.006204557656242
0.7036820001953316,0.0078034849246465
0.7041703291337045,0.0237330210734028
0.7046586580720774,0.038014108241065
0.7051469870104502,0.0486918361646245
0.7056353159488231,0.0593452398259048
0.706123644887196,0.0721654239143783
0.7066119738255688,0.0810787076786797
0.7071003027639418,0.0820681758471961
0.7075886317023147,0.0802756858169431
0.7080769606406876,0.0778026214527165
0.7085652895790604,0.0744791564017804
0.7090536185174333,0.070701842024351
0.7095419474558062,0.0611667347162429
0.7100302763941791,0.0472682196132638
0.710518605332552,0.0369549658644172
0.7110069342709249,0.0280247973413651
0.7114952632092978,0.0157826148918236
0.7119835921476707,0.0001508401854266
0.7124719210860435,0.0184976883393702
0.7129602500244164,0.0363684501557088
0.7134485789627893,0.052890070565834
0.7139369079011623,0.0629221087419031
0.7144252368395351,0.0647275783525627
0.714913565777908,0.0708978956438627
0.7154018947162809,0.084208697583032
0.7158902236546537,0.092127084694472
0.7163785525930266,0.0879338478303362
0.7168668815313995,0.0758787962143568
0.7173552104697725,0.0652962454479189
0.7178435394081453,0.0578233957026512
0.7183318683465182,0.0479432589697901
0.7188201972848911,0.0335891985196814
0.719308526223264,0.014520527191239
0.7197968551616368,0.0030923735458191
0.7202851841000097,0.0123644626267024
0.7207735130383827,0.0198913308828031
0.7212618419767556,0.0317945141205218
0.7217501709151284,0.0440921944272192
0.7222384998535013,0.0537872121780668
0.7227268287918742,0.0629817618420753
0.7232151577302471,0.0741034392094067
0.7237034866686199,0.0834447112422046
0.7241918156069929,0.0848235058215621
0.7246801445453658,0.0795468361221918
0.7251684734837386,0.0711959321285221
0.7256568024221115,0.0638451866218483
0.7261451313604844,0.0628360939536791
0.7266334602988573,0.059291223196995
0.7271217892372301,0.0429726588910675
0.7276101181756031,0.0219101045213922
0.728098447113976,0.0054183594900704
0.7285867760523489,0.008109441541412
0.7290751049907217,0.0244142017022312
0.7295634339290946,0.0394049375599906
0.7300517628674675,0.0474241775204352
0.7305400918058405,0.0561902400332743
0.7310284207442133,0.0687460391796236
0.7315167496825862,0.0790373197654033
0.7320050786209591,0.0833609325995923
0.7324934075593319,0.0812274372180832
0.7329817364977048,0.0783312569902721
0.7334700654360777,0.0770449422825189
0.7339583943744507,0.0707500307135652
0.7344467233128235,0.0602491160752673
0.7349350522511964,0.0507802100173577
0.7354233811895693,0.0397526224269862
0.7359117101279422,0.0267106113225694
0.736400039066315,0.0134064849972862
0.7368883680046879,0.000464638920805
0.7373766969430608,0.0127564509750687
0.7378650258814338,0.0245202093202324
0.7383533548198066,0.0389157968984273
0.7388416837581795,0.0550478080737149
0.7393300126965524,0.0673832867943755
0.7398183416349253,0.0703234144960369
0.7403066705732981,0.0704893327346602
0.740794999511671,0.0756139436201882
0.741283328450044,0.0784173761809755
0.7417716573884168,0.0748722935964218
0.7422599863267897,0.0713587179938101
0.7427483152651626,0.0686170660013661
0.7432366442035355,0.0620438710913827
0.7437249731419083,0.0485679424123725
0.7442133020802812,0.0291873042759471
0.7447016310186542,0.0113535563534492
0.7451899599570271,0.0001536275330988
0.7456782888953999,0.0087518502409529
0.7461666178337728,0.0192812812063992
0.7466549467721457,0.0358011769927055
0.7471432757105186,0.0538446725878707
0.7476316046488914,0.064705705898783
0.7481199335872644,0.0711659544407211
0.7486082625256373,0.0758109380125589
0.7490965914640102,0.077290373707515
0.749584920402383,0.0785654690059916
0.7500732493407559,0.0768750512058341
0.7505615782791288,0.0695833953274209
0.7510499072175016,0.0624938801782211
0.7515382361558746,0.0552560924291603
0.7520265650942475,0.0428212970986171
0.7525148940326204,0.0262861667402935
0.7530032229709932,0.0099573838974872
0.7534915519093661,0.003491016307946
0.753979880847739,0.0163632565309538
0.754468209786112,0.029235078045836
0.7549565387244848,0.0411748935254565
0.7554448676628577,0.05357760158382
0.7559331966012306,0.0615250947433999
0.7564215255396035,0.0656797542073346
0.7569098544779763,0.0747912195670586
0.7573981834163492,0.08567486793768
0.7578865123547222,0.0912963705054043
0.7583748412930951,0.0892568153302078
0.7588631702314679,0.0776975466709482
0.7593514991698408,0.0612404424572281
0.7598398281082137,0.0465830626500813
0.7603281570465865,0.0365664179654311
0.7608164859849594,0.0291673662211968
0.7613048149233324,0.0171920873113833
0.7617931438617053,0.0008124284737288
0.7622814728000781,0.0172811211129674
0.762769801738451,0.0258612850685375
0.7632581306768239,0.0342922480958933
0.7637464596151968,0.0506120583648504
0.7642347885535696,0.0619791600805477
0.7647231174919426,0.0636294353661106
0.7652114464303155,0.065450000254583
0.7656997753686884,0.0643580130128311
0.7661881043070612,0.0642827666754522
0.7666764332454341,0.0742845635105083
0.767164762183807,0.0800970552622391
0.7676530911221799,0.0720636274174041
0.7681414200605527,0.0609181110743533
0.7686297489989257,0.0508568460841935
0.7691180779372986,0.0360222547875957
0.7696064068756714,0.0167858000418748
0.7700947358140443,0.0032214461708669
0.7705830647524172,0.0023502007145417
0.7710713936907901,0.01477085387758
0.771559722629163,0.0365201319333665
0.7720480515675359,0.0506487477763171
0.7725363805059088,0.0543809979782975
0.7730247094442817,0.0587371168914916
0.7735130383826545,0.0679448080423563
0.7740013673210274,0.0768276745802073
0.7744896962594003,0.079874312871943
0.7749780251977733,0.0794686454247041
0.7754663541361461,0.078393688212383
0.775954683074519,0.0746076699569076
0.7764430120128919,0.0650770823307492
0.7769313409512647,0.0486376031798904
0.7774196698896376,0.0302846316058915
0.7779079988280105,0.0143442138887396
0.7783963277663835,0.0005004457115456
0.7788846567047563,0.0128201287822575
0.7793729856431292,0.0246110751208785
0.7798613145815021,0.0403956556733312
0.780349643519875,0.0535718399405551
0.7808379724582478,0.0583462848558169
0.7813263013966207,0.0593808213313381
0.7818146303349937,0.0635193950982167
0.7823029592733666,0.0720562195550479
0.7827912882117394,0.0773685663519863
0.7832796171501123,0.0760164761071121
0.7837679460884852,0.0737152444030031
0.7842562750268581,0.0705990592661678
0.7847446039652309,0.0633937777226298
0.7852329329036039,0.0529458117648196
0.7857212618419768,0.0401820341689439
0.7862095907803496,0.0283250150971793
0.7866979197187225,0.0184697610595425
0.7871862486570954,0.0038159999758454
0.7876745775954683,0.0185914113158754
0.7881629065338411,0.042233466789176
0.788651235472214,0.0567431782335028
0.789139564410587,0.0597206037358312
0.7896278933489599,0.0594233278868192
0.7901162222873327,0.0619376226481808
0.7906045512257056,0.0702908507482936
0.7910928801640785,0.0804500502271041
0.7915812091024514,0.0810351998765603
0.7920695380408243,0.0723893680818823
0.7925578669791972,0.0639875241654002
0.7930461959175701,0.0573191820704616
0.793534524855943,0.0475925135449984
0.7940228537943158,0.0354538096006291
0.7945111827326887,0.0248516409414426
0.7949995116710616,0.0121944244469012
0.7954878406094344,0.0053238198395869
0.7959761695478074,0.0228975502568474
0.7964644984861803,0.036708693713674
0.7969528274245532,0.0469242369135258
0.797441156362926,0.0562817200072954
0.7979294853012989,0.0644681179153242
0.7984178142396718,0.0708273119729547
0.7989061431780448,0.0801305344540259
0.7993944721164176,0.0887025630075274
0.7998828010547905,0.0855536579489986
0.8003711299931634,0.0730103619775952
0.8008594589315363,0.0624845185966052
0.8013477878699091,0.056318962094502
0.801836116808282,0.04930049221271
0.802324445746655,0.0404351136292624
0.8028127746850279,0.0299190873030501
0.8033011036234007,0.0134740814602202
0.8037894325617736,0.0073110367914281
0.8042777615001465,0.0241047657806082
0.8047660904385193,0.0356060045501746
0.8052544193768922,0.0442391815223833
0.8057427483152652,0.0513657588491716
0.8062310772536381,0.0598839577392855
0.8067194061920109,0.0682489732388502
0.8072077351303838,0.0737405289438337
0.8076960640687567,0.0785415135413519
0.8081843930071296,0.0837562618144734
0.8086727219455024,0.0836913586783922
0.8091610508838754,0.0758735278043954
0.8096493798222483,0.0683460782557654
0.8101377087606212,0.0612908596334304
0.810626037698994,0.0467785371015889
0.8111143666373669,0.0267689730017247
0.8116026955757398,0.0067585735694009
0.8120910245141127,0.0092520509875495
0.8125793534524856,0.0191681456172828
0.8130676823908585,0.0287460253298455
0.8135560113292314,0.040519879038068
0.8140443402676042,0.0491744922010333
0.8145326692059771,0.0563203110923942
0.81502099814435,0.0674053157069
0.815509327082723,0.0756949945414725
0.8159976560210958,0.0744860972788593
0.8164859849594687,0.0737476134693338
0.8169743138978416,0.0784710237853092
0.8174626428362145,0.0779124018508854
0.8179509717745873,0.0683209711620707
0.8184393007129602,0.0558545850766646
0.8189276296513331,0.0445242586811981
0.8194159585897061,0.0328983545935111
0.8199042875280789,0.0177892743088108
0.8203926164664518,0.0008497331932706
0.8208809454048247,0.0153070393846489
0.8213692743431976,0.0293614305455871
0.8218576032815704,0.0408588837734486
0.8223459322199433,0.0530348019914656
0.8228342611583163,0.0642358217473293
0.8233225900966891,0.0698197713751418
0.823810919035062,0.0723661135821893
0.8242992479734349,0.0756130646194751
0.8247875769118078,0.0771513629718067
0.8252759058501806,0.0710189171755368
0.8257642347885535,0.0626069449545331
0.8262525637269265,0.0628503163437514
0.8267408926652994,0.0652057022861491
0.8272292216036722,0.0577348126794503
0.8277175505420451,0.0403116674977655
0.828205879480418,0.0201879016944827
0.8286942084187909,0.0049792294465603
0.8291825373571637,0.0071146323289939
0.8296708662955367,0.0238392949889979
0.8301591952339096,0.0421525100506571
0.8306475241722824,0.0519187693326924
0.8311358531106553,0.0543684681907341
0.8316241820490282,0.0613265263284444
0.8321125109874011,0.0729603829309873
0.8326008399257739,0.0790750859339266
0.8330891688641469,0.0801379947402989
0.8335774978025198,0.0799726778349717
0.8340658267408927,0.0775293701710807
0.8345541556792655,0.0708348377848952
0.8350424846176384,0.057188812882453
0.8355308135560113,0.0417077207530832
0.8360191424943842,0.0334714894603116
0.836507471432757,0.0281545882415454
0.83699580037113,0.0134480002555861
0.8374841293095029,0.0087538995923726
0.8379724582478758,0.0243062785349263
0.8384607871862486,0.0331259227469653
0.8389491161246215,0.045554669656468
0.8394374450629944,0.0598164160594123
0.8399257740013673,0.0715848346772601
0.8404141029397402,0.0796165212320517
0.8409024318781131,0.0806230436894384
0.841390760816486,0.0788365738932839
0.8418790897548588,0.0804162896250656
0.8423674186932317,0.0808005137828896
0.8428557476316046,0.0724351537313456
0.8433440765699776,0.0597472207599466
0.8438324055083504,0.0501210943736264
0.8443207344467233,0.0384383097489891
0.8448090633850962,0.0234109283592448
0.8452973923234691,0.0098930546565759
0.8457857212618419,0.0055910413526983
0.8462740502002148,0.0220633442802675
0.8467623791385878,0.0350033096478703
0.8472507080769607,0.0457884990635569
0.8477390370153335,0.0548667326523635
0.8482273659537064,0.065340416211425
0.8487156948920793,0.0774218168889922
0.8492040238304521,0.0836322560928453
0.849692352768825,0.0850284641318112
0.850180681707198,0.0867721184469599
0.8506690106455709,0.0840059345476082
0.8511573395839437,0.0737548755271734
0.8516456685223166,0.0620088505326566
0.8521339974606895,0.0509461984963007
0.8526223263990624,0.037907147853762
0.8531106553374352,0.0257214007676999
0.8535989842758082,0.0147971693184004
0.8540873132141811,0.002662411622113
0.854575642152554,0.0227972772479842
0.8550639710909268,0.0356296487497083
0.8555523000292997,0.0465333154314943
0.8560406289676726,0.0602780069187672
0.8565289579060456,0.0714014201409016
0.8570172868444184,0.0753213268521254
0.8575056157827913,0.0735187097219852
0.8579939447211642,0.0745928612688929
0.858482273659537,0.0794157925492792
0.8589706025979099,0.0806926331229633
0.8594589315362828,0.0757697941393698
0.8599472604746558,0.0625379204573955
0.8604355894130286,0.0464341679967723
0.8609239183514015,0.03536769954077
0.8614122472897744,0.0249873724246121
0.8619005762281473,0.011907662277062
0.8623889051665201,0.0020462289552
0.862877234104893,0.0175521614102726
0.863365563043266,0.0338306057334963
0.8638538919816389,0.0476745360388892
0.8643422209200117,0.0582245262365797
0.8648305498583846,0.0668359933339547
0.8653188787967575,0.0720625321456336
0.8658072077351304,0.0720218610191256
0.8662955366735032,0.0717643191277217
0.8667838656118761,0.0757146347019516
0.8672721945502491,0.0780156413025314
0.8677605234886219,0.0711703519307558
0.8682488524269948,0.0600016808477456
0.8687371813653677,0.0536762802022307
0.8692255103037406,0.0469199877777942
0.8697138392421134,0.0325724422428991
0.8702021681804863,0.01456032397186
0.8706904971188593,0.0043211664198666
0.8711788260572322,0.022637572468862
0.871667154995605,0.0372692177986215
0.8721554839339779,0.0469555791047394
0.8726438128723508,0.0542299090964216
0.8731321418107237,0.0633724614839512
0.8736204707490965,0.0700027532234777
0.8741087996874695,0.0701827735759007
0.8745971286258424,0.0708957865644544
0.8750854575642153,0.0755025313047648
0.8755737865025881,0.0806664558966183
0.876062115440961,0.0803767397074705
0.8765504443793339,0.0700620649651766
0.8770387733177067,0.0539573937023869
0.8775271022560797,0.0386824157755487
0.8780154311944526,0.0288532764702654
0.8785037601328255,0.0212759399618974
0.8789920890711983,0.0056867635418652
0.8794804180095712,0.0152195003472907
0.8799687469479441,0.0316801360766497
0.880457075886317,0.0433810204804726
0.8809454048246899,0.0553991790963738
0.8814337337630628,0.0683693266947782
0.8819220627014357,0.0738704369525869
0.8824103916398086,0.0731899921416013
0.8828987205781814,0.0762116308420245
0.8833870495165543,0.0791449261166624
0.8838753784549273,0.0752075536594681
0.8843637073933001,0.0643509831568316
0.884852036331673,0.05184992689872
0.8853403652700459,0.0435200415261175
0.8858286942084188,0.0358638171513417
0.8863170231467916,0.0268402942968243
0.8868053520851645,0.0182238494931569
0.8872936810235375,0.0064893800374771
0.8877820099619104,0.0092568453903404
0.8882703389002832,0.0262582618338138
0.8887586678386561,0.0421106951046832
0.889246996777029,0.0547229062105295
0.8897353257154019,0.0646459141818951
0.8902236546537747,0.0733307426817563
0.8907119835921476,0.0810243323040128
0.8912003125305206,0.0836264307768177
0.8916886414688935,0.0788909439334379
0.8921769704072663,0.0766416338351012
0.8926652993456392,0.0778248597214276
0.8931536282840121,0.0680355893645763
0.8936419572223849,0.0512781486480839
0.8941302861607578,0.0414382966486367
0.8946186150991308,0.0327435660163365
0.8951069440375037,0.016006286114524
0.8955952729758765,0.0036718834717992
0.8960836019142494,0.0194869807731295
0.8965719308526223,0.0322156854903214
0.8970602597909952,0.041961644108563
0.897548588729368,0.0502752656789231
0.898036917667741,0.0615502003945405
0.8985252466061139,0.0719744463592686
0.8990135755444868,0.0756115317350875
0.8995019044828596,0.0735953083473494
0.8999902334212325,0.0720449425512183
0.9004785623596054,0.0766379340753443
0.9009668912979784,0.0797498464126397
0.9014552202363512,0.0700555457308749
0.901943549174724,0.0551286789248461
0.902431878113097,0.0454434956878142
0.9029202070514698,0.0357032543065316
0.9034085359898428,0.0216381248626636
0.9038968649282156,0.0101323620400838
0.9043851938665886,0.00132334483338
0.9048735228049614,0.0121833266426715
0.9053618517433344,0.0290210865668777
0.9058501806817072,0.0460466686076609
0.90633850962008,0.0609265789179008
0.9068268385584528,0.0681588376621154
0.9073151674968258,0.0694734008174341
0.9078034964351988,0.0705140118028116
0.9082918253735716,0.0734341909039286
0.9087801543119444,0.0772270528594022
0.9092684832503174,0.0767995605215069
0.9097568121886904,0.0732740361939476
0.9102451411270632,0.0693937612864008
0.910733470065436,0.0593700449148247
0.911221799003809,0.0417934549783842
0.911710127942182,0.0184013003827288
0.9121984568805548,0.0041028361363489
0.9126867858189276,0.0156657539695661
0.9131751147573004,0.024712400213897
0.9136634436956734,0.0400782603146891
0.9141517726340462,0.0539814298565971
0.9146401015724192,0.0623222811143331
0.915128430510792,0.0678920438374825
0.915616759449165,0.0723010784909993
0.9161050883875378,0.075483777910025
0.9165934173259108,0.0787915824550839
0.9170817462642836,0.0798585502095692
0.9175700752026564,0.0724953965767293
0.9180584041410292,0.0636444919894789
0.9185467330794024,0.0594201932769188
0.9190350620177752,0.0520284900352117
0.919523390956148,0.0388483145174335
0.9200117198945208,0.0241124859233405
0.9205000488328938,0.0107015233845691
0.9209883777712669,0.0017251114992076
0.9214767067096395,0.0147187647145769
0.9219650356480124,0.0305576188600977
0.9224533645863854,0.048076081973786
0.9229416935247584,0.0572646039505123
0.9234300224631312,0.0597788184940812
0.923918351401504,0.0674287422681279
0.9244066803398768,0.0765901341325127
0.92489500927825,0.0810127428691218
0.9253833382166228,0.0846244409110554
0.9258716671549956,0.0892497939391405
0.9263599960933684,0.0865930841127137
0.9268483250317414,0.071145708450732
0.9273366539701142,0.0536011236055755
0.9278249829084873,0.0401721984048521
0.92831331184686,0.0261719146472042
0.9288016407852328,0.0125624735155873
0.9292899697236058,0.0018090927359599
0.9297782986619788,0.0207935721812282
0.9302666276003516,0.0426416691755091
0.9307549565387244,0.0610075166915446
0.9312432854770972,0.0682209198519778
0.9317316144154704,0.06739707323916
0.9322199433538432,0.068424138690403
0.932708272292216,0.0724628622779509
0.9331966012305888,0.0735842778806326
0.9336849301689618,0.0696817794077788
0.9341732591073348,0.0651906150021612
0.9346615880457076,0.063276620694042
0.9351499169840805,0.0625185537542115
0.9356382459224534,0.0566242373524036
0.9361265748608264,0.0398753972818428
0.9366149037991992,0.0186375893868849
0.937103232737572,0.0027747416345309
0.9375915616759448,0.0065846224401552
0.9380798906143176,0.0139818264950682
0.9385682195526908,0.028156904128321
0.9390565484910636,0.0487798965968275
0.9395448774294364,0.0630568768977272
0.9400332063678092,0.06973834505793
0.9405215353061822,0.0769281252353826
0.9410098642445552,0.08448153973201
0.941498193182928,0.0870848468285747
0.9419865221213009,0.0822035900949323
0.9424748510596738,0.0735333927600061
0.9429631799980468,0.0660844403027169
0.9434515089364196,0.0611969201901805
0.9439398378747924,0.0557807636931255
0.9444281668131652,0.0449485874050818
0.9449164957515382,0.0317642127446176
0.9454048246899112,0.0187016555375739
0.945893153628284,0.0007387557359261
0.9463814825666568,0.0184260925263174
0.9468698115050298,0.0345708095855412
0.9473581404434026,0.0510309278333586
0.9478464693817756,0.0637400041900475
0.9483347983201484,0.0690682315402122
0.9488231272585214,0.0724564227231566
0.9493114561968942,0.0767498389966589
0.9497997851352672,0.078109778585659
0.95028811407364,0.0780494831865111
0.9507764430120128,0.081450401021894
0.9512647719503856,0.0794249771695732
0.9517531008887586,0.0662429923557586
0.9522414298271316,0.0507534076015097
0.9527297587655044,0.0368072849750343
0.9532180877038772,0.0253167805138957
0.9537064166422502,0.0157059219022577
0.9541947455806232,0.0017267895066539
0.954683074518996,0.0154620363528663
0.9551714034573688,0.0306635789345505
0.9556597323957418,0.0436792417631092
0.9561480613341148,0.0531860382915859
0.9566363902724876,0.0595076020446289
0.9571247192108604,0.0657315929600591
0.9576130481492332,0.0740861736856793
0.9581013770876062,0.0834768842681628
0.958589706025979,0.0863928939087611
0.959078034964352,0.0819492725545766
0.9595663639027248,0.0751386439168652
0.9600546928410978,0.0657785599370127
0.9605430217794706,0.0583212396968383
0.9610313507178436,0.0536668732858922
0.9615196796562164,0.043535073276772
0.9620080085945892,0.0261795505936677
0.9624963375329622,0.0041430837067445
0.9629846664713352,0.0175476265761823
0.963472995409708,0.0342415942604457
0.9639613243480808,0.0483325345477806
0.9644496532864536,0.0611605822778748
0.9649379822248266,0.0708497331400888
0.9654263111631995,0.0750629869943043
0.9659146401015724,0.0763425765811428
0.9664029690399452,0.0816848072165241
0.9668912979783182,0.0887597707929422
0.9673796269166912,0.088409722738592
0.967867955855064,0.0765853448155227
0.9683562847934368,0.0615083511970731
0.9688446137318096,0.0543541539773481
0.9693329426701828,0.0501217553482775
0.9698212716085556,0.0403101505678673
0.9703096005469284,0.0261795737213961
0.9707979294853012,0.0095636413092229
0.9712862584236742,0.0083506617624471
0.971774587362047,0.0251317540711186
0.97226291630042,0.0382002374053079
0.9727512452387927,0.049967618901242
0.9732395741771658,0.0646464775647001
0.9737279031155386,0.0755800099144583
0.9742162320539116,0.0754363326262481
0.9747045609922844,0.0701899166178557
0.9751928899306572,0.0708854557122364
0.97568121886903,0.0762115436334873
0.9761695478074032,0.0731284276357387
0.976657876745776,0.0614052913098408
0.9771462056841488,0.0521924534448752
0.9776345346225216,0.0472461168233639
0.9781228635608946,0.038238705921211
0.9786111924992676,0.018328667327854
0.9790995214376405,0.0036276979349782
0.9795878503760131,0.014761137167076
0.9800761793143862,0.0199849043345685
0.9805645082527592,0.0293521441862802
0.981052837191132,0.0441828322114695
0.9815411661295048,0.0602947798547062
0.9820294950678776,0.0714399343967726
0.9825178240062504,0.074195440628828
0.9830061529446236,0.070837228292286
0.9834944818829964,0.0719125583900539
0.9839828108213692,0.0799537090152357
0.984471139759742,0.0796740890977378
0.984959468698115,0.0682385471727752
0.985447797636488,0.0556913345163136
0.9859361265748608,0.0441131563263994
0.9864244555132335,0.0324109102139161
0.9869127844516066,0.017307823300154
0.9874011133899796,0.0006250163709153
0.9878894423283524,0.0110554556458121
0.9883777712667252,0.0215784344397707
0.988866100205098,0.034826629859561
0.989354429143471,0.0476110221262247
0.989842758081844,0.0592533674454388
0.9903310870202168,0.0684303047570639
0.9908194159585896,0.0748510019225891
0.9913077448969626,0.0830039329218766
0.9917960738353354,0.0910259886448262
0.9922844027737084,0.0885580253552393
0.9927727317120812,0.0729734344091524
0.9932610606504542,0.0582552621907567
0.993749389588827,0.0520454675529431
0.9942377185272,0.0448354613226674
0.9947260474655728,0.0367756237354117
0.9952143764039456,0.0316995741427462
0.9957027053423184,0.0194117989363973
0.9961910342806914,0.0020123049645694
0.9966793632190644,0.0222227356184519
0.9971676921574372,0.0358048379514853
0.99765602109581,0.0455324254474265
0.998144350034183,0.0545707982256466
0.998632678972556,0.0596326244436146
0.9991210079109288,0.0650072844468862
0.9996093368493016,0.0767831764053223
1.0000976657876746,0.0840478176182598
1.0005859947260474,0.0797358384234089
1.0010743236644204,0.0711219219757718
1.0015626526027932,0.0647031748169493
1.002050981541166,0.0607062465398893
1.002539310479539,0.0547742578181614
1.0030276394179118,0.0445722544810744
1.0035159683562849,0.0301043258301134
1.0040042972946577,0.0125054840316259
1.0044926262330305,0.0029922359441963
1.0049809551714035,0.0151222259626377
1.0054692841097763,0.0291617809814497
1.0059576130481491,0.045258657404456
1.0064459419865222,0.0554569953097016
1.006934270924895,0.0581333397831924
1.007422599863268,0.0652700774524429
1.0079109288016408,0.0783971010358665
1.0083992577400136,0.0822275403579643
1.0088875866783866,0.0763058623082149
1.0093759156167594,0.0730737551618598
1.0098642445551322,0.0705605113177212
1.0103525734935053,0.0589718928097107
1.010840902431878,0.042190832279343
1.0113292313702509,0.0324305259587764
1.011817560308624,0.0285362636692769
1.0123058892469967,0.0197211308158648
1.0127942181853695,0.0011062373718003
1.0132825471237423,0.0229165753268533
1.0137708760621154,0.0387461492008094
1.0142592050004884,0.0410757008483028
1.0147475339388612,0.0416337934896
1.015235862877234,0.0505107213270135
1.015724191815607,0.0676095297088987
1.0162125207539798,0.084059460179479
1.0167008496923529,0.0901962176556045
1.0171891786307257,0.0847557663022189
1.0176775075690985,0.0729200878188049
1.0181658365074715,0.0614935767482896
1.0186541654458443,0.053825504040117
1.0191424943842171,0.0503565961822948
1.01963082332259,0.0469238472791273
1.020119152260963,0.0369929901410046
1.0206074811993358,0.0221439313043805
1.0210958101377088,0.0051690431039397
1.0215841390760816,0.0123660471058784
1.0220724680144546,0.0247172676836404
1.0225607969528274,0.0319893176513071
1.0230491258912002,0.0420790070944588
1.0235374548295733,0.059234664508005
1.024025783767946,0.0760871072101221
1.0245141127063189,0.0820030387091888
1.025002441644692,0.0780620912742569
1.0254907705830647,0.0730278900359357
1.0259790995214375,0.0708743416618963
1.0264674284598103,0.067679141242408
1.0269557573981831,0.0600086579557781
1.0274440863365564,0.0517686671705659
1.0279324152749292,0.0435446394819661
1.028420744213302,0.0314398939942395
1.028909073151675,0.0184988602020786
1.0293974020900478,0.0068249878516744
1.0298857310284206,0.0050716430010415
1.0303740599667937,0.0170546417597527
1.0308623889051665,0.0319840422703204
1.0313507178435397,0.0489431888896242
1.0318390467819123,0.0620711552163026
1.032327375720285,0.0707962553841943
1.032815704658658,0.0771561745590729
1.033304033597031,0.081602334312168
1.0337923625354035,0.0829409666630018
1.0342806914737768,0.0794532216252341
1.0347690204121496,0.0719687142443216
1.0352573493505226,0.0632383921309336
1.0357456782888954,0.0563292010471732
1.0362340072272682,0.0510126529815423
1.0367223361656412,0.0423754374359535
1.037210665104014,0.0255527942663849
1.0376989940423869,0.0021036609301191
1.03818732298076,0.0185570338664214
1.0386756519191327,0.0312555300469207
1.0391639808575055,0.0393227934063608
1.0396523097958783,0.0474490803781396
1.040140638734251,0.0605963965790268
1.0406289676726244,0.0742107602317445
1.0411172966109972,0.0787298838159074
1.04160562554937,0.0793525504592038
1.042093954487743,0.0821877748388051
1.0425822834261158,0.0823430157421578
1.0430706123644886,0.0755997217087829
1.0435589413028616,0.0622455066142333
1.0440472702412344,0.0475602926646564
1.0445355991796077,0.0362559886190666
1.0450239281179805,0.0259753651710237
1.045512257056353,0.0141227413574825
1.046000585994726,0.0039421658394809
1.046488914933099,0.0030935726063091
1.0469772438714715,0.0141974066467104
1.0474655728098448,0.0325197380654655
1.0479539017482176,0.0500110035955293
1.0484422306865904,0.0624546980325029
1.0489305596249634,0.0722260837032296
1.0494188885633362,0.0787378231839176
1.0499072175017092,0.0798514718687947
1.050395546440082,0.0774746019150666
1.0508838753784548,0.0761480283842347
1.051372204316828,0.0743172794700317
1.051860533255201,0.0666636024039751
1.0523488621935737,0.0562400066146749
1.0528371911319463,0.0454526214813993
1.053325520070319,0.0316133541557947
1.053813849008692,0.0204668446478829
1.0543021779470652,0.011138077952162
1.054790506885438,0.0085632905268748
1.055278835823811,0.0326176753158698
1.0557671647621838,0.0441552618773166
1.0562554937005566,0.045419264283634
1.0567438226389296,0.0514979813727527
1.0572321515773024,0.0675606723571452
1.0577204805156752,0.0841664926502884
1.0582088094540485,0.0898134481711143
1.058697138392421,0.0832992229390689
1.059185467330794,0.0711360521498141
1.059673796269167,0.0641042275786425
1.0601621252075395,0.0682937293156898
1.0606504541459127,0.0700278831005277
1.0611387830842856,0.0578828201935677
1.0616271120226584,0.039856463091074
1.0621154409610314,0.0219978289504595
1.0626037698994042,0.006699368949599
1.063092098837777,0.0033942886648412
1.06358042777615,0.0162928244584335
1.0640687567145228,0.036838345987956
1.064557085652896,0.0536043082716599
1.065045414591269,0.0588664718856131
1.0655337435296417,0.0603730148527153
1.0660220724680145,0.0655217941922396
1.0665104014063873,0.0706236291132376
1.06699873034476,0.0721699850908772
1.0674870592831331,0.0724576138987464
1.067975388221506,0.0719528295699526
1.068463717159879,0.0698397374067144
1.0689520460982518,0.0645548992574154
1.0694403750366246,0.0536634663774859
1.0699287039749976,0.0384980319364796
1.0704170329133704,0.0236065884812811
1.0709053618517432,0.0112358117275236
1.0713936907901165,0.0039315581213163
1.071882019728489,0.0234252707079919
1.072370348666862,0.0374008377832068
1.072858677605235,0.043524490937487
1.0733470065436077,0.0503147416785906
1.0738353354819807,0.0630555373450914
1.0743236644203535,0.0769491273011791
1.0748119933587263,0.0804861414012417
1.0753003222970994,0.0727222528058962
1.0757886512354722,0.0648608193144505
1.076276980173845,0.0653522766421234
1.076765309112218,0.074161325037597
1.0772536380505908,0.0779654237245058
1.077741966988964,0.0639152417170256
1.0782302959273369,0.0400660479935619
1.0787186248657097,0.0176846627068115
1.0792069538040825,0.0025709333896049
1.0796952827424553,0.0187820858901125
1.080183611680828,0.0299638862833968
1.0806719406192011,0.0405387085613468
1.081160269557574,0.0522171562215164
1.0816485984959467,0.0594168592964712
1.0821369274343198,0.0605007274464684
1.0826252563726926,0.0647532962129991
1.0831135853110656,0.0735631934580224
1.0836019142494384,0.079526154646341
1.0840902431878112,0.0802533352234196
1.0845785721261842,0.074814896066138
1.085066901064557,0.0674906755675086
1.08555523000293,0.0602446383276731
1.0860435589413029,0.0486920220419044
1.0865318878796757,0.0381479730289206
1.0870202168180487,0.0311556855072241
1.0875085457564215,0.0186276560657257
1.0879968746947943,0.0027467750246123
1.0884852036331674,0.0224413906770071
1.0889735325715402,0.0302630372007661
1.089461861509913,0.0373892330868733
1.089950190448286,0.0560192383820864
1.0904385193866588,0.0740658326593226
1.0909268483250316,0.0811060918376051
1.0914151772634046,0.0837726418387648
1.0919035062017777,0.088156138699219
1.0923918351401505,0.0910503178197348
1.0928801640785233,0.086075167210711
1.093368493016896,0.0752933628083219
1.0938568219552691,0.0647276829672673
1.094345150893642,0.0529027955800623
1.0948334798320147,0.0383948664750908
1.0953218087703878,0.0239221071779418
1.0958101377087606,0.0116672113212126
1.0962984666471336,0.0015615945408737
1.0967867955855064,0.010418258573083
1.0972751245238792,0.0261087321880509
1.0977634534622522,0.0427219369404106
1.098251782400625,0.057216316210544
1.0987401113389978,0.0657502769643756
1.0992284402773709,0.0695655040461726
1.0997167692157437,0.0753706323257912
1.1002050981541165,0.0831610684785498
1.1006934270924895,0.0854664614695638
1.1011817560308623,0.0777601766403424
1.1016700849692354,0.067444132854837
1.1021584139076082,0.0627008744569291
1.102646742845981,0.0564122894446012
1.103135071784354,0.0433352745025042
1.1036234007227268,0.0294233828705062
1.1041117296610996,0.0151974744656323
1.1046000585994726,0.0025931482660573
1.1050883875378454,0.0210055776030633
1.1055767164762185,0.0318646524016325
1.1060650454145913,0.0343099049215538
1.106553374352964,0.040875097787185
1.107041703291337,0.0561374451946236
1.10753003222971,0.0696659586102069
1.1080183611680827,0.0749206783994818
1.1085066901064555,0.075596016130259
1.1089950190448286,0.0766676785450471
1.1094833479832014,0.0767123835713384
1.1099716769215744,0.0738893523083792
1.1104600058599472,0.0690233751787815
1.1109483347983202,0.0604398307093699
1.111436663736693,0.0492401520860367
1.1119249926750658,0.036583258222574
1.1124133216134389,0.0187244732859168
1.1129016505518117,0.0027063397414227
1.1133899794901845,0.0207145843984762
1.1138783084285575,0.0304952826161489
1.1143666373669303,0.034331192880353
1.1148549663053031,0.0415653663196825
1.115343295243676,0.0544279075699978
1.115831624182049,0.0664907078955235
1.116319953120422,0.0737358241401945
1.1168082820587948,0.0748541030310586
1.1172966109971676,0.0747231136266901
1.1177849399355406,0.0769569706707228
1.1182732688739134,0.0744617012905064
1.1187615978122862,0.0660375078459331
1.1192499267506593,0.0562541285993343
1.119738255689032,0.0458138450719273
1.120226584627405,0.0368669699506993
1.120714913565778,0.0274639764905737
1.1212032425041507,0.0128009659129324
1.1216915714425235,0.0078014767205985
1.1221799003808963,0.031721547327658
1.1226682293192694,0.0488216329010734
1.1231565582576424,0.0519592413635661
1.1236448871960152,0.0505106041380576
1.1241332161343882,0.0559458930959016
1.124621545072761,0.0674104691605536
1.1251098740111338,0.0746649566394889
1.1255982029495069,0.0729212019794395
1.1260865318878797,0.0727046780716549
1.1265748608262525,0.0747585637637963
1.1270631897646255,0.066300024186491
1.1275515187029983,0.0515143985454274
1.128039847641371,0.039339389444004
1.128528176579744,0.0270841954805584
1.129016505518117,0.0148544414149564
1.12950483445649,0.0087258715416393
1.1299931633948628,0.005176244063184
1.1304814923332356,0.009110601689129
1.1309698212716086,0.0305821350159155
1.1314581502099814,0.0463396397671429
1.1319464791483542,0.0582907022369932
1.1324348080867273,0.0690250421831608
1.1329231370251,0.0772489021136366
1.133411465963473,0.0824513988082915
1.133899794901846,0.0805123475417203
1.1343881238402187,0.074022569810611
1.1348764527785915,0.0684266715827776
1.1353647817169643,0.0628718410746592
1.1358531106553371,0.0569575063318775
1.1363414395937104,0.0499878114872308
1.1368297685320832,0.0397526906183669
1.137318097470456,0.0243097009017884
1.137806426408829,0.0065279982468524
1.1382947553472018,0.0079436162551452
1.1387830842855748,0.0209882805934997
1.1392714132239476,0.0348543155310093
1.1397597421623205,0.0473263253794164
1.1402480711006937,0.056951787547752
1.1407364000390663,0.0632335605705592
1.141224728977439,0.0695661001132013
1.141713057915812,0.0773809423714007
1.142201386854185,0.0836670354557143
1.142689715792558,0.0852470287248058
1.1431780447309308,0.0785764288551871
1.1436663736693036,0.0692691525721067
1.1441547026076766,0.0614652514705648
1.1446430315460494,0.047926721340053
1.1451313604844222,0.0309789805683669
1.1456196894227952,0.0171604273291064
1.146108018361168,0.0061103511243884
1.1465963472995409,0.002636082665516
1.147084676237914,0.0140866938527573
1.147573005176287,0.028520507701841
1.1480613341146595,0.0398104960310956
1.1485496630530323,0.0519716878366712
1.149037991991405,0.0652321288306238
1.1495263209297784,0.0720989507026894
1.1500146498681512,0.0775857409670598
1.150502978806524,0.0868465769232288
1.150991307744897,0.0907365838463362
1.1514796366832698,0.0828840580094328
1.1519679656216426,0.0676620137000572
1.1524562945600156,0.0514889074448147
1.1529446234983884,0.0421543398378065
1.1534329524367617,0.03947045605826
1.1539212813751345,0.0315189831731642
1.154409610313507,0.0165388557679716
1.15489793925188,0.002225006391148
1.155386268190253,0.0099981572644429
1.1558745971286255,0.0242247398516535
1.1563629260669988,0.0440652197745232
1.1568512550053716,0.0648185785023593
1.1573395839437446,0.0782753133432864
1.1578279128821174,0.0815340022258204
1.1583162418204902,0.0776941167183414
1.1588045707588632,0.0765516258560747
1.159292899697236,0.0815332770476484
1.1597812286356088,0.0828399740844743
1.160269557573982,0.074196604310457
1.160757886512355,0.0582807398088601
1.1612462154507277,0.0413684715705276
1.1617345443891005,0.0282548831716638
1.162222873327473,0.01849207567148
1.1627112022658463,0.0105890127490199
1.1631995312042192,0.0006156340197029
1.163687860142592,0.0183649676766508
1.164176189080965,0.0343264451414327
1.1646645180193378,0.0428535553674234
1.1651528469577106,0.0482959583587947
1.1656411758960836,0.0565320565314899
1.1661295048344564,0.068060853509475
1.1666178337728297,0.0769307083337731
1.1671061627112025,0.0821240671988279
1.167594491649575,0.0857375253663814
1.168082820587948,0.08411427019495
1.168571149526321,0.0768469996783432
1.1690594784646935,0.0670262721278423
1.1695478074030667,0.0557592039542427
1.1700361363414395,0.0424914239483056
1.1705244652798124,0.0258667339698538
1.1710127942181854,0.0091830243170797
1.1715011231565582,0.0044711592258135
1.1719894520949312,0.0166743942926381
1.172477781033304,0.0292048511226573
1.1729661099716768,0.0428821512863712
1.17345443891005,0.0535819444391443
1.1739427678484229,0.0588061733816691
1.1744310967867957,0.0649846675360018
1.1749194257251685,0.0743834804160874
1.1754077546635413,0.0814318856561848
1.1758960836019143,0.0835553039831779
1.1763844125402871,0.0835172234139529
1.17687274147866,0.0805746847160162
1.177361070417033,0.0684892118025616
1.1778493993554058,0.0510530774046566
1.1783377282937786,0.0386419115117066
1.1788260572321516,0.0290934321533275
1.1793143861705244,0.015689181522293
1.1798027151088972,0.0003965094095781
1.1802910440472705,0.012269566304382
1.180779372985643,0.0258051181546815
1.181267701924016,0.044569666516573
1.181756030862389,0.0605316311806269
1.1822443598007617,0.0681492046252585
1.1827326887391347,0.0729016071944641
1.1832210176775075,0.0768169865793304
1.1837093466158803,0.0797135983708238
1.1841976755542534,0.0813838372133057
1.1846860044926262,0.0809460008614325
1.1851743334309992,0.078344931143405
1.185662662369372,0.0692420511318456
1.1861509913077448,0.0534668792170057
1.1866393202461178,0.0379232673482385
1.1871276491844909,0.0250835491840555
1.1876159781228637,0.0123701406791939
1.1881043070612365,0.0018906568731313
1.1885926359996093,0.0156445261978653
1.189080964937982,0.0258182764087612
1.1895692938763551,0.0339416565349547
1.190057622814728,0.0465273072230354
1.190545951753101,0.061239529305837
1.1910342806914738,0.0683671796592071
1.1915226096298466,0.0721608887359098
1.1920109385682196,0.0803423995381901
1.1924992675065924,0.085258519266039
1.1929875964449652,0.0803302008750564
1.1934759253833382,0.0757141795218523
1.193964254321711,0.0776843331947812
1.194452583260084,0.0749636383919203
1.1949409121984569,0.0624154345918128
1.1954292411368297,0.0436357633300765
1.1959175700752027,0.0193756055146549
1.1964058990135755,0.0017470800309685
1.1968942279519483,0.0132916034713624
1.1973825568903214,0.0234700583144512
1.1978708858286942,0.0383356493571683
1.198359214767067,0.0540397775594519
1.19884754370544,0.0653921824525038
1.1993358726438128,0.0732753489377493
1.1998242015821858,0.0802667868034463
1.2003125305205586,0.0855267323125571
1.2008008594589314,0.0893314369117107
1.2012891883973045,0.0881759034660341
1.2017775173356773,0.0785670513875854
1.20226584627405,0.0652430925929608
1.2027541752124231,0.054561037494817
1.203242504150796,0.049159057932653
1.203730833089169,0.0430382258503886
1.2042191620275418,0.0304045618870356
1.2047074909659146,0.0114448719408181
1.2051958199042876,0.0105122618859633
1.2056841488426604,0.0259754981060776
1.2061724777810332,0.0353326819744349
1.2066608067194062,0.0452427623846228
1.207149135657779,0.0522904144404825
1.2076374645961518,0.0590894363772674
1.2081257935345249,0.0705364924716663
1.2086141224728977,0.0820386853083753
1.2091024514112707,0.089611435120529
1.2095907803496435,0.0892674964701269
1.2100791092880163,0.0790672650444906
1.2105674382263891,0.0638105181478419
1.2110557671647622,0.0505833887909575
1.211544096103135,0.0418131948677473
1.212032425041508,0.0320533283364382
1.2125207539798808,0.0182187359666394
1.2130090829182538,0.0032674657106492
1.2134974118566266,0.010572265565681
1.2139857407949994,0.0243103399144013
1.2144740697333725,0.0381485521358882
1.2149623986717453,0.0482238655562521
1.215450727610118,0.0548881720902481
1.215939056548491,0.0631424132428409
1.216427385486864,0.0719303764707901
1.2169157144252367,0.0767754674019565
1.2174040433636095,0.0771386534735606
1.2178923723019826,0.0751923930157149
1.2183807012403556,0.0712775594118998
1.2188690301787284,0.0636928126420221
1.2193573591171012,0.0535857053748437
1.2198456880554742,0.0397985153556194
1.220334016993847,0.0216653690906612
1.2208223459322198,0.0104021319263184
1.2213106748705929,0.0082555446814294
1.2217990038089657,0.0001714523806156
1.2222873327473387,0.0175640154469453
1.2227756616857115,0.0349633278785548
1.2232639906240843,0.0474450355894048
1.2237523195624571,0.0582898465563104
1.22424064850083,0.0698413548003854
1.224728977439203,0.0791408551861348
1.225217306377576,0.0819179701803851
1.2257056353159488,0.0813922792756166
1.2261939642543216,0.0839329433497997
1.2266822931926946,0.0838759603500378
1.2271706221310674,0.0750400212595768
1.2276589510694405,0.0616259413687978
1.2281472800078133,0.047293786922186
1.228635608946186,0.0360539855620493
1.229123937884559,0.0290253109573679
1.229612266822932,0.0188733088424161
1.2301005957613047,0.0023294233988921
1.2305889246996775,0.0152453918269495
1.2310772536380503,0.0283006447033404
1.2315655825764236,0.039224462188527
1.2320539115147964,0.0546511107441165
1.2325422404531692,0.0705052988906987
1.2330305693915422,0.0799411237920307
1.233518898329915,0.0847394665923498
1.2340072272682878,0.0854255497065568
1.2344955562066608,0.0818196627710394
1.2349838851450337,0.0768177265728066
1.2354722140834065,0.0715123546512348
1.2359605430217795,0.0610847600701397
1.2364488719601523,0.0445322168121351
1.236937200898525,0.033526541580468
1.237425529836898,0.0286470489884389
1.237913858775271,0.0158039995847446
1.238402187713644,0.0064779647876499
1.2388905166520168,0.0269075655859482
1.2393788455903896,0.0372977974618689
1.2398671745287626,0.0414699756239741
1.2403555034671354,0.0470825794236212
1.2408438324055084,0.0547576478074941
1.2413321613438812,0.0631707562560512
1.241820490282254,0.0714230896547782
1.242308819220627,0.0797160608005592
1.242797148159,0.0850141749320975
1.2432854770973727,0.0803563724108572
1.2437738060357455,0.0681962478267031
1.2442621349741183,0.0567861831061925
1.2447504639124911,0.0476340283996337
1.2452387928508644,0.0356961418033072
1.2457271217892372,0.021646136354989
1.2462154507276102,0.013208458443789
1.246703779665983,0.0061440923205445
1.2471921086043558,0.0115382779949
1.2476804375427288,0.0373561529982119
1.2481687664811016,0.0559663320630889
1.2486570954194744,0.0611778887338789
1.2491454243578477,0.063701656442965
1.2496337532962205,0.0716919757204002
1.250122082234593,0.079664845321324
1.250610411172966,0.08075305425728
1.251098740111339,0.0777575020880204
1.251587069049712,0.0757740305578699
1.2520753979880848,0.071563949094839
1.2525637269264576,0.0625699067884333
1.2530520558648306,0.0526412286348585
1.2535403848032034,0.0421458442404726
1.2540287137415762,0.0247401729018511
1.2545170426799492,0.0010649190502359
1.255005371618322,0.0129771389047046
1.255493700556695,0.0141378487780825
1.255982029495068,0.0202153942923865
1.256470358433441,0.03662693818374
1.2569586873718137,0.0544008357148175
1.2574470163101863,0.0665569697820341
1.257935345248559,0.0729937423757326
1.2584236741869324,0.0776495729789252
1.2589120031253052,0.0787936039024513
1.259400332063678,0.0774480199928015
1.259888661002051,0.0757009825173128
1.2603769899404238,0.0703601364953614
1.2608653188787968,0.0646482643782839
1.2613536478171696,0.0574750376431665
1.2618419767555424,0.0432046963559239
1.2623303056939157,0.027625545902526
1.2628186346322885,0.015116633580151
1.263306963570661,0.0033024843144245
1.263795292509034,0.0115193052867077
1.264283621447407,0.030253864918515
1.26477195038578,0.0424761387256626
1.2652602793241527,0.0475024508627798
1.2657486082625256,0.0584855386543382
1.2662369372008986,0.0739812924907186
1.2667252661392714,0.0838474968608034
1.2672135950776442,0.0846768276053583
1.2677019240160172,0.080878967267796
1.26819025295439,0.0776989431419265
1.2686785818927628,0.072911191973198
1.269166910831136,0.0639548671335064
1.269655239769509,0.0506435337572048
1.2701435687078817,0.0368525920147006
1.2706318976462545,0.0287700082491463
1.2711202265846273,0.0194312513279712
1.2716085555230003,0.0033883572291962
1.2720968844613731,0.0103356882700063
1.272585213399746,0.021620670572303
1.273073542338119,0.0355674371909838
1.2735618712764918,0.0514145229812682
1.2740502002148648,0.0680430416335882
1.2745385291532376,0.0769239371673665
1.2750268580916104,0.0747354427536053
1.2755151870299837,0.0724119495178821
1.2760035159683565,0.0735618018727613
1.276491844906729,0.0732740787622584
1.276980173845102,0.0687574746307338
1.277468502783475,0.0612239315780237
1.2779568317218477,0.0544658449836699
1.2784451606602207,0.0459651800364042
1.2789334895985935,0.0324413535789127
1.2794218185369666,0.0177356978240278
1.2799101474753394,0.0034816148272556
1.2803984764137122,0.0105783172982075
1.2808868053520852,0.0211428517579055
1.281375134290458,0.0300258067618179
1.2818634632288308,0.0456388236241894
1.282351792167204,0.0651628989689322
1.2828401211055769,0.0740360258694534
1.2833284500439497,0.0702666647036766
1.2838167789823225,0.0677178354188397
1.2843051079206953,0.0754872434809448
1.2847934368590683,0.0832826525840372
1.2852817657974411,0.0756418504380173
1.285770094735814,0.061051089745607
1.286258423674187,0.0561354330356421
1.2867467526125598,0.0539219546108369
1.2872350815509326,0.0432315947515611
1.2877234104893056,0.0274547197735734
1.2882117394276784,0.0103174244021506
1.2887000683660514,0.00577091720599
1.2891883973044242,0.0190400582740709
1.289676726242797,0.0329460593449211
1.29016505518117,0.0484271568888853
1.290653384119543,0.0618280572081799
1.2911417130579157,0.0694951229601439
1.2916300419962887,0.0710847711906131
1.2921183709346615,0.0688589767040646
1.2926066998730346,0.066342971081695
1.2930950288114074,0.0697579519766842
1.2935833577497802,0.0774466408193564
1.2940716866881532,0.0782916415796306
1.294560015626526,0.0682624861853253
1.2950483445648988,0.0534257815194102
1.2955366735032718,0.0406904339600408
1.2960250024416446,0.0296889625224601
1.2965133313800177,0.0144894092470781
1.2970016603183905,0.0066312676439445
1.2974899892567633,0.0286085594260519
1.2979783181951363,0.0431211183417471
1.2984666471335091,0.0480632008478412
1.298954976071882,0.0537498261317138
1.299443305010255,0.0673955964029514
1.2999316339486278,0.0807274443774037
1.3004199628870006,0.0849986899444819
1.3009082918253736,0.0841880170106393
1.3013966207637464,0.0841232695157267
1.3018849497021194,0.082293586443591
1.3023732786404922,0.0758799711573322
1.302861607578865,0.0662100000412298
1.303349936517238,0.052900490346373
1.3038382654556109,0.0363892248277245
1.3043265943939837,0.0204042929890137
1.3048149233323567,0.0059441169498326
1.3053032522707295,0.008455301048882
1.3057915812091023,0.0237765426296896
1.3062799101474754,0.0382243836357797
1.3067682390858482,0.0485720470785719
1.3072565680242212,0.0558983198426165
1.307744896962594,0.0621050177749226
1.3082332259009668,0.0687212654095268
1.3087215548393398,0.0758171749563985
1.3092098837777126,0.0769525571089899
1.3096982127160854,0.07268766205972
1.3101865416544585,0.073014504018503
1.3106748705928313,0.0748907176490747
1.3111631995312043,0.0669269854322492
1.311651528469577,0.0499628866709821
1.31213985740795,0.0338780789836781
1.312628186346323,0.0239658538216151
1.3131165152846958,0.0148988027741455
1.3136048442230686,0.0002073755040226
1.3140931731614416,0.0199347119430273
1.3145815020998144,0.0372649973412965
1.3150698310381872,0.0486158709487515
1.3155581599765602,0.0579358862644183
1.316046488914933,0.0652206806105187
1.316534817853306,0.0694977762114478
1.3170231467916789,0.0777030174608381
1.3175114757300517,0.0856808300067821
1.3179998046684247,0.0827192090532174
1.3184881336067975,0.0741678655928311
1.3189764625451703,0.0683842226401311
1.3194647914835431,0.062325423984013
1.319953120421916,0.0505666672712753
1.3204414493602892,0.0353852128624591
1.320929778298662,0.0208186594096356
1.3214181072370348,0.0061329190594923
1.3219064361754078,0.0070003145824058
1.3223947651137806,0.0195484989007143
1.3228830940521534,0.0370655419148187
1.3233714229905265,0.055081469431727
1.3238597519288993,0.0666198923146361
1.324348080867272,0.0738398132087675
1.324836409805645,0.0797196815726487
1.325324738744018,0.0859487450922431
1.325813067682391,0.0908918560127099
1.3263013966207635,0.0895792792308437
1.3267897255591363,0.0841222373298045
1.3272780544975096,0.0776385211120682
1.3277663834358824,0.0672341483130232
1.3282547123742552,0.0534934251717338
1.3287430413126282,0.0393824421295324
1.329231370251001,0.0256822992571289
1.329719699189374,0.0136683629876334
1.3302080281277469,0.0009988074636896
1.3306963570661197,0.0142214823761569
1.3311846860044927,0.0287918498596691
1.3316730149428655,0.04157349489642
1.3321613438812383,0.0522937864279855
1.332649672819611,0.0608235374564556
1.333138001757984,0.0679185057925107
1.333626330696357,0.0740043513053912
1.33411465963473,0.0792018206314024
1.3346029885731028,0.0783401998580624
1.3350913175114758,0.0699957829316675
1.3355796464498486,0.0609230675127154
1.3360679753882214,0.0508127423598278
1.3365563043265944,0.0397496420420829
1.3370446332649673,0.0328465312240979
1.33753296220334,0.0271802213524702
1.338021291141713,0.0198860801757376
1.338509620080086,0.0100250096324928
1.338997949018459,0.0034015286830137
1.3394862779568315,0.0171200292547605
1.3399746068952043,0.0326871682362689
1.3404629358335776,0.0486655049193546
1.3409512647719504,0.0585690787210064
1.3414395937103232,0.0661044970164121
1.3419279226486962,0.0748447130385428
1.342416251587069,0.0814692814117401
1.3429045805254418,0.0831718170506223
1.3433929094638148,0.0776190506974341
1.3438812384021877,0.0666388336371482
1.344369567340561,0.0541407287826018
1.3448578962789337,0.0426668424479867
1.3453462252173063,0.0360066840708017
1.345834554155679,0.0299183129964948
1.346322883094052,0.0171929390949292
1.346811212032425,0.0009576746947417
1.347299540970798,0.014210752746915
1.3477878699091708,0.0280246359820975
1.3482761988475438,0.039933310547433
1.3487645277859166,0.0476443642887132
1.3492528567242894,0.0559239442841945
1.3497411856626624,0.0689700463091674
1.3502295146010352,0.0762739713666035
1.350717843539408,0.0772036877148551
1.351206172477781,0.0818026804864462
1.351694501416154,0.0836587419313847
1.352182830354527,0.0770312470602146
1.3526711592928995,0.0695903665325098
1.3531594882312723,0.0633099580887728
1.3536478171696456,0.0540730618711642
1.3541361461080184,0.0410234788710923
1.3546244750463912,0.0246750159756484
1.3551128039847642,0.0068222866240463
1.355601132923137,0.0085553025047202
1.3560894618615098,0.0205052364766416
1.3565777907998828,0.0331541985552163
1.3570661197382556,0.0475887724176052
1.3575544486766284,0.061753785055297
1.3580427776150017,0.0737576026145013
1.3585311065533745,0.0796725837880221
1.3590194354917473,0.0797110029117272
1.35950776443012,0.0756428061444063
1.359996093368493,0.0687156016284978
1.360484422306866,0.0643587938525483
1.3609727512452388,0.063126773197566
1.3614610801836116,0.0604606616065019
1.3619494091219846,0.0512304278934753
1.3624377380603574,0.035012017347174
1.3629260669987304,0.0194679159237994
1.3634143959371032,0.0062796623277235
1.363902724875476,0.0058133397916558
1.364391053813849,0.017665409727013
1.364879382752222,0.0348763320081735
1.365367711690595,0.0540682080542639
1.3658560406289677,0.0674733295382203
1.3663443695673405,0.0745540685699133
1.366832698505713,0.0762795492152934
1.3673210274440863,0.0743125986635724
1.3678093563824592,0.071716040429125
1.3682976853208322,0.0730942033499053
1.368786014259205,0.0776847547539269
1.3692743431975778,0.0758407335830957
1.3697626721359508,0.0648199040647481
1.3702510010743236,0.0516724338813231
1.3707393300126964,0.0413010777382875
1.3712276589510697,0.0309358830375508
1.3717159878894425,0.0137534954176488
1.3722043168278153,0.0088662209460989
1.372692645766188,0.0309168932293914
1.373180974704561,0.0509062293218866
1.373669303642934,0.0635697960816153
1.3741576325813067,0.0673563788532342
1.3746459615196795,0.0720162763433432
1.3751342904580526,0.0802322185887204
1.3756226193964254,0.0860987227614379
1.3761109483347982,0.0850582490763955
1.3765992772731712,0.0788380537356209
1.377087606211544,0.0765391423224171
1.377575935149917,0.0769420759012361
1.37806426408829,0.0697958820641328
1.3785525930266629,0.0549010357555291
1.3790409219650357,0.0383040421476849
1.3795292509034085,0.0240380586876781
1.3800175798417813,0.011532283562882
1.3805059087801543,0.0016362589443123
1.3809942377185271,0.0156157230423754
1.3814825666569002,0.0329452190411082
1.381970895595273,0.0536176619598318
1.3824592245336458,0.0703629996729385
1.3829475534720188,0.0774139699129381
1.3834358824103916,0.0775499687017443
1.3839242113487644,0.0795545066098809
1.3844125402871374,0.0806536688885528
1.3849008692255105,0.0731244570587234
1.385389198163883,0.0681998480319809
1.385877527102256,0.0731407395288362
1.386365856040629,0.0709605893910862
1.386854184979002,0.0514131073813382
1.3873425139173747,0.0280609596493673
1.3878308428557475,0.0113203535172945
1.3883191717941206,0.0008796081275418
1.3888075007324934,0.0068651240954534
1.3892958296708662,0.0115880677267796
1.3897841586092392,0.025154326262604
1.390272487547612,0.0419564387313666
1.390760816485985,0.0546551445521636
1.3912491454243578,0.0644441609936445
1.3917374743627309,0.0723303786507225
1.3922258033011037,0.0790485052386857
1.3927141322394765,0.0843604040202827
1.3932024611778493,0.0855764305851411
1.3936907901162223,0.0800527185922964
1.3941791190545951,0.06994361876744
1.394667447992968,0.0585363268660494
1.395155776931341,0.0482254408187358
1.3956441058697138,0.0430283534241437
1.3961324348080868,0.0362529183089771
1.3966207637464596,0.0184302649412608
1.3971090926848324,0.0026493309761258
1.3975974216232054,0.0189869584209357
1.3980857505615782,0.0350290814444667
1.398574079499951,0.0520429611316482
1.399062408438324,0.063192093319424
1.3995507373766969,0.0654947883230288
1.40003906631507,0.0658370457363294
1.4005273952534427,0.0720705151385005
1.4010157241918155,0.0824935143345826
1.4015040531301886,0.0863772982031681
1.4019923820685614,0.0776780741668832
1.4024807110069342,0.0652939466648137
1.4029690399453072,0.0574425571761672
1.40345736888368,0.050289439796136
1.4039456978220528,0.0416787532215925
1.4044340267604258,0.031635953519579
1.4049223556987986,0.0176931108157679
1.4054106846371717,0.0029385714265308
1.4058990135755445,0.0097748082741331
1.4063873425139173,0.024009473660333
1.4068756714522903,0.0398889478783439
1.4073640003906631,0.0521677979621879
1.407852329329036,0.0599658248614529
1.408340658267409,0.0657925684769323
1.4088289872057818,0.0705200996988019
1.4093173161441548,0.0759559495934753
1.4098056450825276,0.0790215834979896
1.4102939740209004,0.0765461079558044
1.4107823029592734,0.0746043758524298
1.4112706318976462,0.071820610739237
1.411758960836019,0.0600124060835758
1.412247289774392,0.0416569835318062
1.4127356187127649,0.023493336057714
1.4132239476511377,0.0079618785019116
1.4137122765895107,0.0054886966122311
1.4142006055278835,0.0183877754588403
1.4146889344662563,0.0334357283883159
1.4151772634046291,0.0506920761253771
1.4156655923430022,0.0644477699829351
1.4161539212813752,0.0726861571156713
1.416642250219748,0.0769568055874803
1.4171305791581208,0.0782359517199285
1.4176189080964938,0.0784801851655863
1.4181072370348666,0.0765978950600173
1.4185955659732397,0.0728464259475515
1.4190838949116125,0.0683340667469936
1.4195722238499853,0.0619841287218499
1.4200605527883583,0.0560667112759229
1.420548881726731,0.0483772481396104
1.421037210665104,0.0343652417871856
1.421525539603477,0.0177860094714336
1.4220138685418495,0.001219773318809
1.4225021974802226,0.0168364561894801
1.4229905264185956,0.034403964866425
1.4234788553569684,0.0472624444692185
1.4239671842953414,0.0565039383234435
1.4244555132337142,0.0669379693308014
1.424943842172087,0.0776243569888026
1.42543217111046,0.083069058892301
1.4259205000488329,0.0801363916708108
1.4264088289872057,0.0753778106639455
1.4268971579255787,0.0772442769858047
1.4273854868639515,0.0818557319796196
1.4278738158023243,0.0792069385629871
1.4283621447406971,0.063704546733448
1.42885047367907,0.0436746502058893
1.4293388026174432,0.0319009252969176
1.429827131555816,0.0233694582699118
1.4303154604941888,0.0078233080575041
1.4308037894325618,0.0125654757752048
1.4312921183709346,0.0303435905446516
1.4317804473093074,0.0418391237565899
1.4322687762476805,0.0515349384935285
1.4327571051860533,0.0638498551738551
1.4332454341244265,0.0736729612378639
1.433733763062799,0.0765746632409807
1.434222092001172,0.0775679753184904
1.434710420939545,0.0845231820933152
1.4351987498779175,0.0917471383417403
1.4356870788162903,0.0828123965578019
1.4361754077546636,0.0636571217576189
1.4366637366930364,0.0528269570159926
1.4371520656314094,0.0463832411009252
1.4376403945697822,0.0359921457034224
1.438128723508155,0.0247112200550698
1.438617052446528,0.0109394721038547
1.4391053813849009,0.0097978737811414
1.4395937103232737,0.0314507019873231
1.440082039261647,0.0428572227811553
1.4405703682000195,0.0465970262726469
1.4410586971383923,0.0531639726325738
1.441547026076765,0.0615665399973262
1.442035355015138,0.0698012204064061
1.4425236839535112,0.079026322365471
1.443012012891884,0.0851049632027817
1.4435003418302568,0.0849733888518428
1.4439886707686298,0.0774795996454078
1.4444769997070026,0.0651644637453431
1.4449653286453754,0.0509793592248154
1.4454536575837484,0.0351304378007113
1.4459419865221212,0.0222189774366208
1.4464303154604945,0.0124024268831589
1.446918644398867,0.0021491149328749
1.44740697333724,0.0080547239381742
1.447895302275613,0.0193894066939313
1.4483836312139855,0.0314731017883735
1.4488719601523583,0.0449954793542
1.4493602890907316,0.060835003065388
1.4498486180291044,0.0711171833833957
1.4503369469674772,0.0724878244358161
1.4508252759058502,0.0704019536582612
1.451313604844223,0.06966606889098
1.451801933782596,0.0725669218331806
1.4522902627209688,0.0747304879716869
1.4527785916593416,0.0701969103671669
1.453266920597715,0.0556585044735644
1.4537552495360877,0.0348256840715726
1.4542435784744605,0.0208768017425648
1.454731907412833,0.0151708455700036
1.455220236351206,0.0067226372631508
1.455708565289579,0.0077894261678829
1.456196894227952,0.0244135480547334
1.4566852231663248,0.038033726519321
1.4571735521046978,0.0486766851293204
1.4576618810430706,0.0615933068702114
1.4581502099814434,0.0760991165503447
1.4586385389198164,0.0835236137839794
1.4591268678581892,0.0800977883651565
1.459615196796562,0.0746398487215085
1.460103525734935,0.0745810842385723
1.460591854673308,0.0752994286960041
1.461080183611681,0.0701396301398188
1.4615685125500535,0.0590206939462308
1.4620568414884263,0.0461608177358038
1.4625451704267995,0.0320234899816551
1.4630334993651724,0.0154014921221251
1.4635218283035452,0.0003509251678718
1.4640101572419182,0.0119473219027904
1.464498486180291,0.0234905433262755
1.4649868151186638,0.0336041651294104
1.4654751440570368,0.0436329931893434
1.4659634729954096,0.0551633655835502
1.4664518019337829,0.0668051490436901
1.4669401308721557,0.07585608233999
1.4674284598105285,0.0800232814905063
1.4679167887489013,0.0795759560442594
1.468405117687274,0.0760861730510516
1.468893446625647,0.0729434669793001
1.46938177556402,0.0709339915920559
1.4698701045023927,0.0638450559837352
1.4703584334407658,0.0502631651048337
1.4708467623791386,0.0365089610820367
1.4713350913175114,0.0243732162233216
1.4718234202558844,0.0097233732052301
1.4723117491942572,0.0076715775411455
1.47280007813263,0.0234879126221302
1.473288407071003,0.0378497878023617
1.473776736009376,0.0520395605859643
1.474265064947749,0.0629596685090865
1.4747533938861217,0.0688459162747457
1.4752417228244945,0.0711683943617656
1.4757300517628675,0.0726529189987682
1.4762183807012403,0.0756610779720933
1.4767067096396131,0.0801686249198547
1.4771950385779862,0.0828323435286452
1.477683367516359,0.0767887605866692
1.4781716964547318,0.0613522762561921
1.4786600253931048,0.0454508283117924
1.4791483543314776,0.0319480200589936
1.4796366832698506,0.0172817709090472
1.4801250122082237,0.0021907100820525
1.4806133411465965,0.0093847525253375
1.4811016700849693,0.0178315547381161
1.481589999023342,0.0299955674391576
1.482078327961715,0.0454976107883263
1.482566656900088,0.0571545871097086
1.4830549858384607,0.0655646275556052
1.4835433147768335,0.0739172947249372
1.4840316437152066,0.0795998230261379
1.4845199726535794,0.0778472225449341
1.4850083015919524,0.0722797406026281
1.4854966305303252,0.0714490001647926
1.485984959468698,0.0715584775442249
1.486473288407071,0.0649641293835953
1.486961617345444,0.0539214673585196
1.4874499462838169,0.0424352693188542
1.4879382752221897,0.0312076918889872
1.4884266041605625,0.0150658279595631
1.4889149330989355,0.009045521065093
1.4894032620373083,0.0304628655545187
1.4898915909756811,0.0423699864972493
1.4903799199140542,0.0499631364383611
1.490868248852427,0.0571744580034776
1.4913565777907998,0.0639753847503506
1.4918449067291728,0.0686364663532315
1.4923332356675456,0.0728797653660274
1.4928215646059184,0.0781147605716108
1.4933098935442914,0.0812614132738992
1.4937982224826645,0.0814479482038842
1.4942865514210373,0.0760563504015666
1.49477488035941,0.0651703759299757
1.495263209297783,0.0545937570080069
1.495751538236156,0.0425267354000912
1.4962398671745287,0.0258899227722142
1.4967281961129015,0.0079911997843039
1.4972165250512746,0.0063360112815813
1.4977048539896474,0.0160233548490735
1.4981931829280204,0.0263560305449241
1.4986815118663932,0.0375603037290584
1.499169840804766,0.0483473515207408
1.499658169743139,0.062332162534986
1.5001464986815118,0.0732473788390072
1.5006348276198846,0.074260382479422
1.5011231565582577,0.0722526454299895
1.5016114854966305,0.0740357751693119
1.5020998144350033,0.0770638429320301
1.5025881433733763,0.0742650351221318
1.5030764723117491,0.0647779181768038
1.5035648012501222,0.0547196152275763
1.504053130188495,0.0441081994575402
1.5045414591268678,0.0287660818087987
1.5050297880652408,0.0109445282072134
1.5055181170036136,0.0012533020881257
1.5060064459419864,0.0077288966199847
1.5064947748803594,0.0204876146813238
1.5069831038187322,0.038140831490902
1.5074714327571053,0.0490345423743173
1.507959761695478,0.0571979199697075
1.5084480906338509,0.0668395887277686
1.508936419572224,0.0741459896707595
1.5094247485105967,0.0807606921657748
1.5099130774489695,0.0856171637146804
1.5104014063873423,0.0835438698795775
1.5108897353257154,0.0741002271637881
1.5113780642640882,0.0613740410650295
1.5118663932024612,0.0502955922507289
1.512354722140834,0.0408314237684628
1.512843051079207,0.0297274778564643
1.5133313800175798,0.0117595762054705
1.5138197089559526,0.012559369179617
1.5143080378943257,0.0298325201906156
1.5147963668326985,0.0359967941644483
1.5152846957710713,0.0426617916213232
1.5157730247094443,0.0545517064992138
1.5162613536478171,0.0651398932247185
1.51674968258619,0.0685858239110732
1.517238011524563,0.0698165498391295
1.5177263404629358,0.0760138230847293
1.5182146694013088,0.0807256410407998
1.5187029983396816,0.0742836235996207
1.5191913272780544,0.0601157545946829
1.5196796562164274,0.049593202635169
1.5201679851548002,0.0446415737873387
1.520656314093173,0.0374470697952736
1.521144643031546,0.0281677271085921
1.5216329719699189,0.0195084863099306
1.522121300908292,0.0065503945183941
1.5226096298466647,0.0100964454426589
1.5230979587850375,0.0252741422432793
1.5235862877234103,0.0392660755837004
1.5240746166617831,0.052864778945049
1.524562945600156,0.0625213112458921
1.5250512745385292,0.0652060029080363
1.525539603476902,0.0680444199116946
1.526027932415275,0.0755326125667433
1.5265162613536478,0.0777189693283483
1.5270045902920206,0.0712354348991849
1.5274929192303937,0.0632201012657855
1.5279812481687665,0.0569538518096942
1.5284695771071393,0.051045920182884
1.5289579060455123,0.0422647963374731
1.529446234983885,0.0294244264914321
1.529934563922258,0.0137911709977182
1.530422892860631,0.0019781060193344
1.5309112217990035,0.0181966564989577
1.5313995507373768,0.0361993590496204
1.5318878796757496,0.0475945925231809
1.5323762086141224,0.0510552133600924
1.5328645375524954,0.0576662905860655
1.5333528664908682,0.0662880196491872
1.533841195429241,0.0721043789590944
1.534329524367614,0.0777234362707838
1.5348178533059869,0.0816420603499545
1.53530618224436,0.0797221270112023
1.5357945111827327,0.0719942472411846
1.5362828401211055,0.0649532479548586
1.5367711690594783,0.0595678449248362
1.537259497997851,0.0472790583796118
1.537747826936224,0.0288937909945395
1.5382361558745972,0.0100206003561417
1.53872448481297,0.0071133570203277
1.5392128137513428,0.020080841110999
1.5397011426897158,0.0323853665685204
1.5401894716280886,0.0439240715095009
1.5406778005664616,0.051188202571999
1.5411661295048344,0.0583832553853495
1.5416544584432073,0.0679590059274495
1.5421427873815805,0.0776276394446696
1.542631116319953,0.0825872839933606
1.543119445258326,0.0805398913078582
1.543607774196699,0.0763589102637564
1.5440961031350715,0.0741515536270387
1.5445844320734448,0.0706432144789723
1.5450727610118176,0.0577772614027644
1.5455610899501904,0.0371438283539948
1.5460494188885634,0.0233580039039297
1.5465377478269362,0.0214505919360228
1.547026076765309,0.0159925078479546
1.547514405703682,0.0037340037831469
1.5480027346420548,0.0268733971071083
1.5484910635804277,0.043974581517503
1.548979392518801,0.0553342173094132
1.5494677214571737,0.0598445732656899
1.5499560503955463,0.0634434385593364
1.550444379333919,0.0721251144328434
1.550932708272292,0.0799909500761643
1.5514210372106652,0.0826842422807613
1.551909366149038,0.0810842370982252
1.5523976950874108,0.0746133213979737
1.5528860240257838,0.0639516673170813
1.5533743529641566,0.0548469443111203
