Time (s),Filtered EMG Contracted
0.0,1.9817197445134505e-05
0.199980468750036,0.00010467893653784909
0.399960937500072,7.817263934880905e-05
0.5999414062501081,6.889420314706373e-05
0.799921875000144,6.457212027732838e-05
0.99990234375018,5.8993271862304935e-05
1.1998828125002161,6.381726826090739e-05
1.399863281250252,6.360056073089622e-05
1.599843750000288,6.884829922057874e-05
1.799824218750324,4.4444399132440616e-05
1.99980468750036,5.944716595658352e-05
2.199785156250396,9.180123841385395e-05
2.3997656250004322,6.572330925689201e-05
2.599746093750468,2.048370524233389e-05
2.799726562500504,4.320144700926821e-05
2.99970703125054,6.804282070833659e-05
3.199687500000576,8.213294279459645e-05
3.399667968750612,9.233171336326025e-05
3.599648437500648,7.116400385269832e-05
3.799628906250684,9.492179192725669e-05
3.99960937500072,7.229823340935665e-05
4.199589843750756,0.0001240022161049168
4.399570312500792,0.0001257568103489609
4.599550781250828,8.360435137466562e-05
4.7995312500008644,9.209755221761943e-05
4.9995117187509,9.395046123867706e-05
5.199492187500936,4.497555381384261e-05
5.399472656250972,0.0001567772138395244
5.599453125001008,4.5292990351948696e-05
5.799433593751044,1.854979195331802e-05
5.99941406250108,0.00011727531555008062
6.199394531251116,0.00030926024815452883
6.399375000001152,0.00018306917831421133
6.599355468751188,0.000207145800243092
6.799335937501224,0.0001367772329755112
6.99931640625126,0.00023916235443381635
7.199296875001296,0.0002527984988090765
7.399277343751332,9.605052865348564e-05
7.599257812501368,0.00015056772245286896
7.799238281251404,0.000311726035078093
7.99921875000144,0.00022656391761483117
8.199199218751476,0.00042163816100839575
8.399179687501512,0.0004610834481352394
8.599160156251548,0.00023756701576625128
8.799140625001584,0.0001651085901081534
8.99912109375162,9.781515079875254e-05
9.199101562501657,0.00032276481841517587
9.399082031251693,0.0008426814631519762
9.599062500001729,0.0006904841494085697
9.799042968751763,0.00021534501324027672
9.9990234375018,0.0005549642247860742
10.199003906251836,0.0005413412192615142
10.398984375001872,0.0014050542329742419
10.598964843751908,0.0006629894118356863
10.798945312501944,0.00055253028054539
10.99892578125198,0.00044577011926481906
11.198906250002016,0.001135958127540387
11.398886718752053,0.0008711116174186545
11.598867187502089,0.0005996862142669899
11.798847656252123,0.0005466239860298965
11.99882812500216,0.000981257148195566
12.198808593752196,0.0008137239758956856
12.398789062502232,0.0009351770724008723
12.598769531252268,0.0008207947061736849
12.798750000002304,0.0005458931445366356
12.99873046875234,0.00043018385291359625
13.198710937502376,0.0007356177028217704
13.398691406252413,0.0012631123439438606
13.598671875002449,0.0007584658174866005
13.798652343752485,0.00027644062073254845
13.99863281250252,0.0006020882232463227
14.198613281252555,0.0014141635871095983
14.398593750002592,0.0011840133655985864
14.598574218752628,0.00033787484541133604
14.798554687502664,0.0017596445475755468
14.9985351562527,0.0013169534327333247
15.198515625002736,0.00029000768525090973
15.398496093752772,0.0017114418244427968
15.598476562502809,0.001638567798272264
15.798457031252845,0.0009971474175929258
15.99843750000288,0.000912390653935061
16.198417968752917,0.00025237630104234975
16.39839843750295,0.00011999022862286602
16.59837890625299,0.0010418668377384166
16.798359375003024,0.000462798123764398
16.99833984375306,0.0017498917315386356
17.198320312503096,0.001052838648878819
17.39830078125313,0.0010412095255800033
17.59828125000317,0.0009316418457354632
17.798261718753203,0.0012447551880145015
17.99824218750324,0.0009120772126064969
18.198222656253275,0.000365205530455516
18.398203125003313,0.0012226981152809173
18.598183593753348,0.000703273508833346
18.798164062503385,0.0008192635391196371
18.99814453125342,0.0010074282004699925
19.198125000003458,0.0003764526780069935
19.398105468753492,0.0006997376726177451
19.598085937503527,0.0006946334226770654
19.798066406253565,0.0008298986808408064
19.9980468750036,0.0008465985579656022
20.198027343753637,0.0010444062099364436
20.39800781250367,0.0005055020940941591
20.59798828125371,0.0010498981536995716
20.797968750003744,0.0022574490254664934
20.99794921875378,0.0011035143272812324
21.197929687503816,0.0009593023649450195
21.39791015625385,0.0006278792299203146
21.59789062500389,0.001114900190886089
21.797871093753923,0.0009074217559057097
21.99785156250396,0.0011587157207819465
22.197832031253995,0.0014339168876451227
22.397812500004033,0.0003367357184498925
22.597792968754067,0.0013658219457641247
22.797773437504105,0.0006598668177697215
22.99775390625414,0.0004907869777828293
23.197734375004178,0.0008534190238642888
23.397714843754212,0.00021183993219519751
23.597695312504246,0.0005310990413974246
23.797675781254284,0.000588169473025469
23.99765625000432,0.0018669630438739471
24.197636718754357,0.0020201521550414366
24.39761718750439,0.0013256778370903247
24.59759765625443,0.0007831643534908094
24.797578125004463,0.00028976098642052145
24.9975585937545,0.0010451465518390632
25.197539062504536,0.00024524422044167304
25.397519531254574,0.0021637291997695153
25.597500000004608,0.0007050264468309708
25.797480468754642,0.002304692580992205
25.99746093750468,0.0005246132598822104
26.197441406254715,0.002340692246139295
26.397421875004753,0.0013072259433097935
26.597402343754787,0.0019951584311144197
26.797382812504825,0.001537804160201694
26.99736328125486,0.0006807838939154267
27.197343750004897,0.0008627209935050256
27.39732421875493,0.0018240431275134792
27.59730468750497,0.0014019314690358006
27.797285156255004,0.0018160370603448979
27.99726562500504,0.0003798718013502953
28.197246093755076,0.0013066079802463296
28.39722656250511,0.0008210695422457347
28.59720703125515,0.0015966660966922745
28.797187500005183,0.0010230250120626236
28.99716796875522,0.0006123618599573305
29.197148437505255,0.0009019073502949952
29.397128906255293,0.0004479897239252924
29.597109375005328,0.001629232485727312
29.797089843755366,0.001991797340213043
29.9970703125054,0.0006575897403198508
30.197050781255435,0.0005123272676146217
30.397031250005472,0.0005802565471664555
30.597011718755507,0.0017763905333214479
30.796992187505545,0.0008942694692037394
30.99697265625558,0.0029121745526843944
31.196953125005617,0.0014497664464710144
31.39693359375565,0.0007936097910314142
31.59691406250569,0.0014737454604537388
31.796894531255724,0.0015821723642767283
31.99687500000576,0.002437604600598799
32.19685546875579,0.0011504507972690072
32.396835937505834,0.001272265692802064
32.59681640625587,0.0005580088021707397
32.7967968750059,0.002092478794014712
32.99677734375594,0.001705119460821157
33.19675781250598,0.0002895140491764024
33.39673828125601,0.0009910359411879296
33.59671875000605,0.0005664911072230948
33.79669921875608,0.0009163131792012407
33.99667968750612,0.0012204015592134478
34.19666015625616,0.0009352619961382893
34.39664062500619,0.0007636981066607424
34.59662109375623,0.0008700034999398999
34.79660156250626,0.001311796448117693
34.9965820312563,0.0017168226291817794
35.19656250000634,0.0012116497694807625
35.39654296875637,0.0006765383957123038
35.596523437506406,0.00044241534948534787
35.79650390625645,0.0017345548081266358
35.99648437500648,0.001694505042664893
36.196464843756516,0.0013512804927553683
36.39644531250655,0.001450985743913227
36.596425781256585,0.0007787428159097506
36.796406250006626,0.0019809009973681606
36.99638671875666,0.0005607385002623053
37.196367187506695,0.0005007327096507633
37.39634765625673,0.0027712975842148365
37.59632812500677,0.0027121504872703816
37.796308593756805,0.0020752453838994212
37.99628906250684,0.0011577651379721307
38.196269531256874,0.001069780350657929
38.396250000006916,0.0018459239213131672
38.59623046875695,0.0028356789901450956
38.796210937506984,0.0014164879219348645
38.99619140625702,0.0006219394752957596
39.19617187500705,0.0017175549117570224
39.396152343757095,0.0013800202587451206
39.59613281250713,0.0003028058907210485
39.79611328125716,0.0007126997950355528
39.9960937500072,0.0010774333509012907
40.19607421875724,0.0006214543756416953
40.396054687507274,0.0016169162326880428
40.59603515625731,0.0019075818475784692
40.79601562500734,0.0008597237572979311
40.99599609375738,0.0025808540909217814
41.19597656250742,0.0010859433176366882
41.39595703125745,0.002031692060123589
41.59593750000749,0.001798113629590625
41.79591796875752,0.00041069218120314677
41.99589843750756,0.0005608175129833516
42.1958789062576,0.001324402087757561
42.39585937500763,0.0018261565840702603
42.595839843757666,0.0016416211463195476
42.7958203125077,0.0019653795366778143
42.99580078125774,0.0007859405025225721
43.19578125000778,0.002286778932323136
43.39576171875781,0.002102868430841814
43.595742187507845,0.0011300387741002887
43.79572265625789,0.0014453995245019044
43.99570312500792,0.0006311177481622525
44.195683593757956,0.0017441382717996287
44.39566406250799,0.0015365490668406907
44.59564453125803,0.0010457325739069484
44.795625000008066,0.0017770028017877627
44.9956054687581,0.0006152842566069735
45.195585937508135,0.0016861472897887614
45.39556640625817,0.0024013159456816526
45.59554687500821,0.0008481096251679959
45.795527343758245,0.0016967382946974094
45.99550781250828,0.00145098494559979
46.195488281258314,0.0009484819707636943
46.395468750008355,0.002288434224163844
46.59544921875839,0.0012199084349122178
46.795429687508424,0.0007267368463559419
46.99541015625846,0.0014903333862216692
47.19539062500849,0.001543132354505791
47.395371093758534,0.0020027163331756354
47.59535156250857,0.000497963644749766
47.7953320312586,0.0005111152451248074
47.99531250000864,0.0020460043608246377
48.19529296875868,0.0018994250498104955
48.39527343750871,0.001907454557352365
48.59525390625875,0.0013562799196106127
48.79523437500878,0.00019630329409703443
48.99521484375882,0.0023870525896109835
49.19519531250886,0.0009721951329223462
49.39517578125889,0.002240212412404353
49.59515625000893,0.0011329154576478274
49.79513671875896,0.001797334685653144
49.995117187509,0.000821696003803849
50.19509765625904,0.0021070366515017567
50.39507812500907,0.0006184732175853138
50.595058593759106,0.002730626381712684
50.79503906250915,0.0008038161318257853
50.99501953125918,0.0015851239591510042
51.195000000009216,0.0025182432955585545
51.39498046875925,0.0012879696914270954
51.594960937509285,0.0019417348033458914
51.794941406259326,0.0006702299933704256
51.99492187500936,0.001350695841317434
52.194902343759395,0.0005400346154695322
52.39488281250943,0.0012971821944687766
52.59486328125947,0.0018025284884656341
52.794843750009505,0.0031859400744919616
52.99482421875954,0.0003654424950391514
53.194804687509574,0.00037151558010113103
53.39478515625961,0.00031768785677817367
53.59476562500965,0.002036760232534289
53.794746093759684,0.003546437070514406
53.99472656250972,0.0031341884752570715
54.19470703125975,0.0006316922561540718
54.394687500009795,0.0015384163930448275
54.59466796875983,0.0017982215683579293
54.79464843750986,0.0018648492928010144
54.9946289062599,0.001005503884981065
55.19460937500994,0.0016929687016582569
55.394589843759974,0.0027231906900494
55.59457031251001,0.0007406356333200032
55.79455078126004,0.0008526805693216343
55.99453125001008,0.0019038827374021313
56.19451171876012,0.003531523369451596
56.39449218751015,0.0018057063357176106
56.59447265626019,0.003165402109153999
56.79445312501022,0.002363842341813679
56.99443359376026,0.000877586903157504
57.1944140625103,0.0008099114162072404
57.39439453126033,0.00019581918192066133
57.594375000010366,0.00015952735302791608
57.7943554687604,3.9515386133896515e-05
57.99433593751044,3.250072488051642e-05
58.19431640626048,4.80412810383213e-05
58.39429687501051,2.110469772589481e-05
58.594277343760545,1.3649362377213365e-05
58.79425781251059,1.4612829931670698e-05
58.99423828126062,1.6457397493888538e-05
59.194218750010656,1.8659921452129434e-05
59.39419921876069,2.099503816366664e-05
59.59417968751073,2.3398989406819842e-05
59.794160156260766,2.5851388860406424e-05
59.9941406250108,2.8367487601395456e-05
60.194121093760835,3.098498880677903e-05
60.39410156251087,3.375948546702761e-05
60.59408203126091,3.6748898150663225e-05
60.794062500010945,4.0023512094176925e-05
60.99404296876098,4.374143897365612e-05
61.194023437511014,4.8305340727223094e-05
61.394003906261055,5.606279911366904e-05
61.59398437501109,6.896872248667619e-05
61.793964843761124,9.247140958833965e-05
61.99394531251116,8.751891154116381e-05
62.19392578126119,0.00024019215068217872
62.393906250011234,0.00012123409765200482
62.59388671876127,0.0001931633532619682
62.7938671875113,0.0004932210767711014
62.99384765626134,0.00046718562201333684
63.19382812501138,0.00042656967212948907
63.39380859376141,0.00022073267294193174
63.59378906251145,0.0006070970935273395
63.79376953126148,0.0008402169977375692
63.99375000001152,0.0010541003304195388
64.19373046876156,0.0015174470642519552
64.39371093751159,0.0004870354764337062
64.59369140626163,0.0005416222542082188
64.79367187501167,0.0008932903949441589
64.9936523437617,0.0007833585655792441
65.19363281251174,0.0027597135241541415
65.39361328126178,4.729880044378141e-05
65.5935937500118,0.0008222677211058046
65.79357421876185,0.0015894189182471064
65.99355468751187,0.0008347294591757909
66.19353515626192,0.0007658692578986141
66.39351562501196,0.001146343953970202
66.59349609376198,0.0016700292636028032
66.79347656251203,0.0024900728469282353
66.99345703126205,0.002457985914382823
67.1934375000121,0.0004896134440006574
67.39341796876214,0.0017802012570431768
67.59339843751216,0.0009464526362597613
67.7933789062622,0.001370406320091128
67.99335937501225,9.035853857361956e-05
68.19333984376227,0.0016201048189744575
68.39332031251232,0.001210393948403267
68.59330078126234,0.0011414465302672604
68.79328125001238,0.0017236926727075851
68.99326171876243,0.0020691810391639575
69.19324218751245,0.00038303507258363
69.3932226562625,0.001063093149794916
69.59320312501252,0.0010862060983242404
69.79318359376256,0.002468335782483061
69.9931640625126,0.00226829333435935
70.19314453126263,0.0008412777900554246
70.39312500001267,0.0001898629814256651
70.5931054687627,0.0026068144985210927
70.79308593751274,0.0006924867700043914
70.99306640626278,0.0005719894977816035
71.19304687501281,0.0007402215738643702
71.39302734376285,0.000878083241785978
71.5930078125129,0.0006339188145560355
71.79298828126292,0.0009363428383818471
71.99296875001296,0.0022926552667460252
72.19294921876299,0.002190024925223595
72.39292968751303,0.0008030898515780448
72.59291015626307,0.0009957536439439833
72.7928906250131,0.0017364579963716255
72.99287109376314,0.0008519875237269947
73.19285156251317,0.00022707934043617883
73.39283203126321,0.0015016606995972778
73.59281250001325,0.0017586069699230243
73.79279296876328,0.0011752398342784647
73.99277343751332,0.002224152148948828
74.19275390626336,0.0021142025511128536
74.39273437501339,0.0016572781734238398
74.59271484376343,0.001644293888762447
74.79269531251346,0.002406618042287323
74.9926757812635,0.0011733267825318127
75.19265625001354,0.001066223163202433
75.39263671876357,0.0010126465188702815
75.59261718751361,0.001477569581549291
75.79259765626364,0.0006168080505552243
75.99257812501368,0.0007222241397792813
76.19255859376372,0.0007840191972833116
76.39253906251375,0.0006248620456495846
76.59251953126379,0.0039132914111462275
76.79250000001383,0.0015102071061915765
76.99248046876386,0.0010868505961224527
77.1924609375139,0.0016715130052426597
77.39244140626393,0.0008402459078372338
77.59242187501397,0.000980411541368521
77.79240234376401,0.0014131405625839569
77.99238281251404,0.0009063816437660339
78.19236328126408,0.0005795458316127756
78.3923437500141,0.0015761274371284555
78.59232421876415,0.0015997850323984219
78.79230468751419,0.00141912526817423
78.99228515626422,0.0004808123087405327
79.19226562501426,0.0017104727704807731
79.39224609376429,0.001216099270985711
79.59222656251433,0.0014727071479356288
79.79220703126437,0.0018838829323487715
79.9921875000144,0.0010177876246431669
80.19216796876444,0.0008416554612160174
80.39214843751448,0.001765885949718667
80.5921289062645,0.000814928538676926
80.79210937501455,0.0009484688491532092
80.99208984376457,0.001423466112740776
81.19207031251462,0.0006780961576951884
81.39205078126466,0.000707894001731638
81.59203125001468,0.0030946762943583096
81.79201171876473,0.0005388038375854352
81.99199218751475,0.0005794332523426552
82.1919726562648,0.0019219869892473777
82.39195312501484,0.0022477603335901404
82.59193359376486,0.0016426260694339956
82.7919140625149,0.0012625425547619648
82.99189453126495,0.0014129236107527647
83.19187500001497,0.0021329844820336574
83.39185546876502,0.001580084158419647
83.59183593751504,0.00019649018753801085
83.79181640626508,0.0009736380632243115
83.99179687501513,0.0020809801034121877
84.19177734376515,0.0029593268968840115
84.3917578125152,0.00073052349506215
84.59173828126522,0.0021068092954331682
84.79171875001526,0.000843861632047917
84.9916992187653,0.002024795134400684
85.19167968751533,0.00019153654794271373
85.39166015626537,0.0014036202220831613
85.5916406250154,6.244219189653247e-05
85.79162109376544,0.00043453879605855723
85.99160156251548,0.0030997184035507098
86.19158203126551,0.0026469440458860814
86.39156250001555,0.0007056897599683503
86.5915429687656,0.0015845057169735074
86.79152343751562,0.0006876111984474084
86.99150390626566,0.001045502561392669
87.19148437501569,0.002605448991168759
87.39146484376573,0.0016271582271462578
87.59144531251577,0.0015766575420852278
87.7914257812658,0.0017861749538957566
87.99140625001584,0.0010667523868379215
88.19138671876587,0.001518352319479591
88.39136718751591,0.0020666461220507065
88.59134765626595,0.0015665940787291282
88.79132812501598,0.0012165547667814317
88.99130859376602,0.0014397578680241053
89.19128906251606,0.0009920604660539358
89.39126953126609,0.001019160120115276
89.59125000001613,0.001519510338369979
89.79123046876616,0.002017929266902168
89.9912109375162,0.0014412479370589748
90.19119140626624,0.002758395449809315
90.39117187501627,0.0012778801237621085
90.59115234376631,0.0012699577876299451
90.79113281251634,0.0019936165604004085
90.99111328126638,0.0008928238817910661
91.19109375001642,0.0011802058187579635
91.39107421876645,0.0014206250600601923
91.59105468751649,0.000937994890296757
91.79103515626652,0.0013630048769462113
91.99101562501656,0.0020801806942146775
92.1909960937666,0.0028276740898666997
92.39097656251663,0.0009414447703057074
92.59095703126667,0.0016982261683675393
92.79093750001671,0.00043229193438821243
92.99091796876674,0.0008050732426310737
93.19089843751678,0.000672959355060323
93.3908789062668,0.0005748982796141117
93.59085937501685,0.001404957855612113
93.79083984376689,0.0006643154895606064
93.99082031251692,0.0016707483644236504
94.19080078126696,0.0019384399703453654
94.39078125001699,0.0011358741668033403
94.59076171876703,0.00038970266154005973
94.79074218751707,0.0011587411251152233
94.9907226562671,0.0006562593080119721
95.19070312501714,0.003149253886200646
95.39068359376718,0.0014087304939117953
95.5906640625172,0.0015551154296460652
95.79064453126725,0.00015609063819889556
95.99062500001727,0.0006817936855085839
96.19060546876732,0.0012713987991556821
96.39058593751736,0.001156789978983457
96.59056640626738,0.002596551338174187
96.79054687501743,0.0012114711686617213
96.99052734376745,0.000381625347963843
97.1905078125175,0.0007180163417342247
97.39048828126754,0.0016720942065398905
97.59046875001756,0.001668628538799465
97.7904492187676,0.0006284729539769013
97.99042968751765,0.0013009558361106366
98.19041015626767,0.00067582257787088
98.39039062501772,0.0007314456412671322
98.59037109376774,0.0021253891853490747
98.79035156251778,0.00042229106871251526
98.99033203126783,0.0011395317325080096
99.19031250001785,0.001198965706494337
99.3902929687679,0.001312073180220503
99.59027343751792,0.0008785831496760243
99.79025390626796,0.0024121616722273284
99.990234375018,0.0014238934942207035
100.19021484376803,0.0030132788328008486
100.39019531251807,0.0008357291336924176
100.5901757812681,0.0002756667947053413
100.79015625001814,0.002387486682468557
100.99013671876818,0.001384812647842286
101.19011718751821,0.0012733186963689476
101.39009765626825,0.0006036564648439713
101.5900781250183,0.00044098245531086857
101.79005859376832,0.0024514942484894654
101.99003906251836,0.0006342767135387602
102.19001953126839,0.001581337283025838
102.39000000001843,0.0006339603681433073
102.58998046876847,0.001154058553643998
102.7899609375185,0.0021010145991931027
102.98994140626854,0.0023879242070850835
103.18992187501857,0.0013533189660802122
103.38990234376861,0.0007169819619002968
103.58988281251865,0.0009438272808052876
103.78986328126868,0.0009199486169163508
103.98984375001872,0.001411444111017777
104.18982421876876,0.0003587524274199171
104.38980468751879,0.0010498884747876273
104.58978515626883,0.0005477129790219146
104.78976562501886,0.0016600357422209091
104.9897460937689,0.0016758609483731484
105.18972656251894,0.001100073570104683
105.38970703126897,0.0009437305062076936
105.58968750001901,0.0006194972295970777
105.78966796876904,0.0005242366618962949
105.98964843751908,0.000841821732947199
106.18962890626912,0.0022626866692026255
106.38960937501915,0.0011129168475782047
106.58958984376919,0.0014167624307002615
106.78957031251922,0.00035266470939427264
106.98955078126926,0.0009623971453103406
107.1895312500193,0.00045901555218412493
107.38951171876933,0.00019729126724292334
107.58949218751937,0.0008440997776144547
107.78947265626941,0.0008273141081424654
107.98945312501944,0.0012567841817444914
108.18943359376948,0.001237649990682519
108.3894140625195,0.0024051652820456315
108.58939453126955,0.002559501074166191
108.78937500001959,0.0007367501479185588
108.98935546876962,7.437358017007028e-05
109.18933593751966,0.0020443302615873143
109.38931640626969,0.0006963298175539747
109.58929687501973,0.0011363707796408923
109.78927734376977,0.0005401795707043279
109.9892578125198,0.000883881731877732
110.18923828126984,0.0006808737327325556
110.38921875001988,0.0010982147843988565
110.5891992187699,0.001751593243421177
110.78917968751995,0.0015296038075545534
110.98916015626997,0.002026025354036827
111.18914062502002,0.0010221546738606161
111.38912109377006,0.0005507912388451389
111.58910156252009,0.0012800337219794917
111.78908203127013,0.0013126338046890135
111.98906250002015,0.0023378514482600664
112.1890429687702,0.0007995202879915334
112.38902343752024,0.0013232609369841612
112.58900390627026,0.002077908547281021
112.7889843750203,0.002412292882573306
112.98896484377035,0.0014631831041786005
113.18894531252037,0.0009273230795644535
113.38892578127042,0.0017317017029704488
113.58890625002044,0.0009974794178990545
113.78888671877048,0.0005455215563055297
113.98886718752053,0.0012786954674769027
114.18884765627055,0.000753358070649748
114.3888281250206,7.678133662839872e-05
114.58880859377062,0.001278265269943935
114.78878906252066,0.001737378981308187
114.9887695312707,0.000684227413702438
115.18875000002073,0.0012899342245234757
115.38873046877077,0.0016489118338165608
115.5887109375208,0.0005874516795970791
115.78869140627084,0.0005978950240132571
115.98867187502088,0.0010126823472617404
116.18865234377091,0.0005568731463118606
116.38863281252095,0.00020304992561375975
116.588613281271,0.0018350080801239899
116.78859375002102,0.0007634618696485044
116.98857421877106,0.0013805063956758028
117.18855468752109,0.001385518851745384
117.38853515627113,0.0006271477859332414
117.58851562502117,0.0020088336093111747
117.7884960937712,0.001128361852511278
117.98847656252124,0.0015227325631139064
118.18845703127127,0.0010775034784007971
118.38843750002131,0.0009847493425104296
118.58841796877135,0.0008189294027676332
118.78839843752138,0.001756877066864248
118.98837890627142,0.0027330445785946566
119.18835937502146,0.001695936124637004
119.38833984377149,0.0015284182770354039
119.58832031252153,0.0016770767665695776
119.78830078127156,0.0004513486521295173
119.9882812500216,0.0025106705853084367
120.18826171877164,0.0010297100575484984
120.38824218752167,0.000253857143193558
120.58822265627171,0.0008573879272123913
120.78820312502174,0.0023926996578049926
120.98818359377178,0.0013164756878912623
121.18816406252182,0.0017094983888736562
121.38814453127185,0.00034441786114644313
121.58812500002189,0.00072275937066877
121.78810546877192,0.000354191172773231
121.98808593752196,0.0016720172190374323
122.188066406272,0.0009704919161643284
122.38804687502203,0.0007264945590103322
122.58802734377207,0.000537522575140295
122.78800781252211,0.0015827141599402573
122.98798828127214,0.0016670819614469055
123.18796875002218,0.00037467335609323894
123.3879492187722,0.0010371141351712303
123.58792968752225,0.0012619006029916233
123.78791015627229,0.00017877452003472484
123.98789062502232,0.0009109314100977802
124.18787109377236,0.0005617005655104839
124.38785156252239,0.0006896722622787006
124.58783203127243,0.0008777263467269188
124.78781250002247,0.0012845280828898884
124.9877929687725,0.001797374179453051
125.18777343752254,0.00035658239429497263
125.38775390627258,0.0011491768156622103
125.5877343750226,0.0005883717025020953
125.78771484377265,0.0004740771927685625
125.98769531252267,0.00029650497838316594
126.18767578127272,0.0024727952960090713
126.38765625002276,0.0012315618087728128
126.58763671877279,0.0012825809506021206
126.78761718752283,0.0026250903125547803
126.98759765627285,0.0008645907972952906
127.1875781250229,0.0007440930948107786
127.38755859377294,0.0012238256230185907
127.58753906252296,0.0009477830186307673
127.787519531273,0.000483845513497206
127.98750000002303,0.0012977809263118147
128.1874804687731,0.0011862564235380084
128.38746093752312,0.001257495409695357
128.58744140627314,0.00018456722697739959
128.78742187502317,0.00048227736340257364
128.98740234377323,0.0007562237335638606
129.18738281252325,0.0006985560444669091
129.38736328127328,0.0003395023504751886
129.58734375002334,0.0005923887611610673
129.78732421877336,0.0012926145780229094
129.9873046875234,0.0006258053037400975
130.18728515627345,0.0007064526530919296
130.38726562502347,0.0007051424776550712
130.5872460937735,0.0009012128620697068
130.78722656252356,0.0007659215242124764
130.98720703127358,0.0014541766050626137
131.1871875000236,0.0009067134286464288
131.38716796877364,0.0012389198109387881
131.5871484375237,0.0013887335210461267
131.78712890627372,0.0006356180909664012
131.98710937502375,0.0014972319985770395
132.1870898437738,0.0010701140646458044
132.38707031252383,0.0007479554725977034
132.58705078127386,0.0012871021775861943
132.78703125002392,0.0008637781517799305
132.98701171877394,0.0010137187153027416
133.18699218752397,0.0010134449070326073
133.38697265627403,0.0007855156627189774
133.58695312502405,0.0004524104890021657
133.78693359377408,0.0005991571408807555
133.9869140625241,0.0010536966429196806
134.18689453127416,0.002250433600544345
134.3868750000242,0.0010479243394219567
134.58685546877422,0.0011882935172215477
134.78683593752427,0.000524539242224542
134.9868164062743,0.0011244108894125878
135.18679687502433,0.001715227577391471
135.38677734377438,0.0010503227518861757
135.5867578125244,0.0015072481539802288
135.78673828127444,0.0012373248621461233
135.9867187500245,0.0012675380549390545
136.18669921877452,0.0008993993499307279
136.38667968752455,0.0011594762984162648
136.58666015627458,0.0006776712514311036
136.78664062502463,0.0007296565058989495
136.98662109377466,0.0010993684903233848
137.1866015625247,0.000592100807939475
137.38658203127474,0.0019101327746291427
137.58656250002477,0.00035153047818236097
137.7865429687748,0.0002159883638681433
137.98652343752485,0.0005363908373376525
138.18650390627488,0.000815231988469921
138.3864843750249,0.0013192319324510844
138.58646484377496,0.0008414067096136684
138.786445312525,0.0012292831489433807
138.98642578127502,0.0016234991373436669
139.18640625002504,0.0009874888595439062
139.3863867187751,0.0001104536532066199
139.58636718752513,0.002383103263511231
139.78634765627515,0.0011471908056877517
139.9863281250252,0.0001364360787974258
140.18630859377524,0.001367074690082167
140.38628906252526,0.0006154210747931274
140.58626953127532,0.0006897635810819857
140.78625000002535,0.0008871855501592778
140.98623046877537,0.0002586494854533679
141.1862109375254,0.0010858026707622822
141.38619140627546,0.00041330225510175514
141.58617187502549,0.0008829389092239467
141.7861523437755,0.0005981691955384056
141.98613281252557,0.0016530540903646322
142.1861132812756,0.0011279315852836796
142.38609375002562,0.000991299226648407
142.58607421877568,0.001305308335998867
142.7860546875257,0.00045953157322214683
142.98603515627573,0.0017150002640235085
143.1860156250258,0.00044320888399348004
143.38599609377582,0.001637430251246229
143.58597656252584,0.0004114029047480614
143.78595703127587,0.0014387665008250574
143.98593750002593,0.001238490416277573
144.18591796877595,0.0006271213958337057
144.38589843752598,0.00033989460540561007
144.58587890627604,0.0011676376526609366
144.78585937502606,0.0009129353869118831
144.9858398437761,0.00056487017664331
145.18582031252615,0.0007191963487461188
145.38580078127617,0.0013843503052764267
145.5857812500262,0.001162554498477612
145.78576171877626,0.002533874432553974
145.98574218752628,0.0007768614282907914
146.1857226562763,0.00018007124365112444
146.38570312502634,0.000517078366367538
146.5856835937764,0.0011236763563058074
146.78566406252642,0.00032695732441037823
146.98564453127645,0.000979155601858972
147.1856250000265,0.0012299308775014764
147.38560546877653,0.000900270892541265
147.58558593752656,0.00013409680410258044
147.78556640627662,0.0008260294625603055
147.98554687502664,0.0018337369750277108
148.18552734377667,0.0007516951804823649
148.38550781252673,0.0002416713921060561
148.58548828127675,0.001037241886886499
148.78546875002678,0.0004937382388054957
148.9854492187768,0.0016303543154292663
149.18542968752686,0.0004618582208631479
149.3854101562769,0.0022996492597134126
149.58539062502692,0.0013972296411415832
149.78537109377697,0.001504270993743638
149.985351562527,0.0002987450281402383
150.18533203127703,0.0005994846901954473
150.38531250002708,0.0011054319420793883
150.5852929687771,0.0019157448530835322
150.78527343752714,0.0018651794970295874
150.9852539062772,0.00142648499078857
151.18523437502722,0.0013478088430631345
151.38521484377725,0.0006459800606880137
151.58519531252728,0.0014822995623352646
151.78517578127733,0.0011347243745127508
151.98515625002736,0.0007463196140445223
152.1851367187774,0.001302402263649213
152.38511718752744,0.0007602745648864266
152.58509765627747,0.0008677131088820874
152.7850781250275,0.0010357548682868242
152.98505859377755,0.0013638749332088576
153.18503906252758,0.002720418427394555
153.3850195312776,0.001866323615746482
153.58500000002766,0.0015674307579112787
153.7849804687777,0.0011266624868117938
153.98496093752772,0.0009767093956486394
154.18494140627774,0.00012183859783957335
154.3849218750278,0.0002669149036735012
154.58490234377783,0.000602237833657733
154.78488281252785,0.0005599522408381682
154.9848632812779,0.0016050191952167018
155.18484375002794,0.0015531516503462391
155.38482421877796,0.002241983442565186
155.58480468752802,0.00048631712849698546
155.78478515627805,0.0014983448680568887
155.98476562502807,0.0013640325419030175
156.1847460937781,0.0003696244392701627
156.38472656252816,0.0015385735353292862
156.58470703127819,0.0008584358188050803
156.7846875000282,0.0006651063231495017
156.98466796877827,0.0013132806469550139
157.1846484375283,0.0010494905670595607
157.38462890627832,0.0005483429877157758
157.58460937502838,0.000605338071032454
157.7845898437784,0.0013074319505259307
157.98457031252843,0.001238492334056476
158.1845507812785,0.00029271419517047924
158.38453125002852,0.0006592033485690283
158.58451171877854,0.0008369645066105032
158.78449218752857,0.0007220215437249823
158.98447265627863,0.0016673891566929473
159.18445312502865,0.000865121968396904
159.38443359377868,0.0006177162649604454
159.58441406252874,0.0013814332572259272
159.78439453127876,0.0014011430482746801
159.9843750000288,0.0009881821791772692
160.18435546877885,0.0009080398242455615
160.38433593752887,0.0006615774667968533
160.5843164062789,0.0008271900657870193
160.78429687502896,0.0012228186876666654
160.98427734377898,0.0016685892887018776
161.184257812529,0.0006294215300048316
161.38423828127904,0.0008048000859050178
161.5842187500291,0.00014114042703721534
161.78419921877912,0.0006075525715233259
161.98417968752915,0.00037777788239834497
162.1841601562792,0.0015890849296128018
162.38414062502923,0.0008609194211122046
162.58412109377926,0.0014300302471153244
162.78410156252932,0.00024089664958813848
162.98408203127934,0.0005968878506154903
163.18406250002937,0.0009838101549713427
163.38404296877943,0.0007454812524570436
163.58402343752945,0.0007045277143635053
163.78400390627948,0.0013600727884035524
163.9839843750295,0.0005772938395870635
164.18396484377956,0.00031127606026122177
164.3839453125296,0.00037679329128984494
164.58392578127962,0.0004177791218226796
164.78390625002967,0.0010800486016757725
164.9838867187797,0.0004373325584644301
165.18386718752973,0.0017076203969139802
165.38384765627978,0.0011463200807344312
165.5838281250298,0.00017670380146910097
165.78380859377984,0.00027165743241247444
165.9837890625299,0.0011265163261584578
166.18376953127992,0.0015655522411476151
166.38375000002995,0.0007450301359442905
166.58373046877998,0.0011168026150586167
166.78371093753003,0.0014596688902765282
166.98369140628006,0.0005061006447110174
167.1836718750301,0.0002739066728085976
167.38365234378014,0.001000779005621326
167.58363281253017,0.0002678319005519763
167.7836132812802,0.0007687817852423916
167.98359375003025,9.07026244224073e-05
168.18357421878028,0.0012397232450301878
168.3835546875303,0.0007494514596745367
168.58353515628033,0.001012446362501502
168.7835156250304,0.0005284976472027726
168.98349609378042,0.0007026896027663821
169.18347656253044,0.0005590337394626871
169.3834570312805,0.0010573607282263879
169.58343750003053,0.00038808369225803736
169.78341796878055,0.0005216943933050072
169.9833984375306,0.0005043233512163421
170.18337890628064,0.0011643666647999913
170.38335937503066,0.0004379485352465242
170.58333984378072,0.0003360009130133524
170.78332031253075,0.00038364406368641876
170.98330078128078,0.0009256200688266734
171.1832812500308,0.0010240527557379094
171.38326171878086,0.0001448257632635974
171.58324218753089,0.0011651203791834134
171.7832226562809,0.0006788576238115393
171.98320312503097,0.0019196401499780237
172.183183593781,0.0011268504437168991
172.38316406253102,0.0015731966582694036
172.58314453128108,0.0012010145654456298
172.7831250000311,0.0003283235343747536
172.98310546878113,0.0013328282820765712
173.1830859375312,0.0007864976355445114
173.38306640628122,0.0007479992929841566
173.58304687503124,0.001247062018197132
173.78302734378127,0.0008070829323489179
173.98300781253133,0.0014901821018203992
174.18298828128135,0.0008798015594971575
174.38296875003138,0.0002536701627555157
174.58294921878144,0.0006000446768715747
174.78292968753146,0.0010706661144194662
174.9829101562815,0.0012453538399025388
175.18289062503155,0.0007276287911564712
175.38287109378157,0.0017047247669573944
175.5828515625316,0.0009775780274428657
175.78283203128166,0.0010766077028161144
175.98281250003168,0.0011211915234361847
176.1827929687817,0.0007754235692656077
176.38277343753174,0.0010731840988249795
176.5827539062818,0.0009410850282195863
176.78273437503182,0.0009696992668754356
176.98271484378185,0.0009677879223752314
177.1826953125319,0.0006648695320055529
177.38267578128193,0.0012433308866114637
177.58265625003196,0.0011857728574046868
177.78263671878202,0.0006579131543459208
177.98261718753204,0.0009255671902296558
178.18259765628207,0.00032017832238718694
178.38257812503213,0.0008630651490114203
178.58255859378215,0.0007155664485765002
178.78253906253218,0.00017441958021516068
178.9825195312822,0.0013359301044361836
179.18250000003226,0.0006284076613940841
179.3824804687823,0.0014498430470365872
179.58246093753232,0.0011564192547600023
179.78244140628237,0.0007958135598248253
179.9824218750324,0.0002543289338022994
180.18240234378243,0.0001627753279485601
180.38238281253248,0.0005766333106792405
180.5823632812825,0.0007280614684273835
180.78234375003254,0.0005579850447786262
180.9823242187826,0.00106698827701471
181.18230468753262,0.0011837873010628168
181.38228515628265,0.0009159530219009987
181.58226562503268,0.00089132886584769
181.78224609378273,0.0006288772476409865
181.98222656253276,0.001274571332102809
182.1822070312828,0.0009979477226472258
182.38218750003284,0.001188634663159733
182.58216796878287,0.0014244584215946886
182.7821484375329,0.0009565533564935389
182.98212890628295,0.00024218281193019053
183.18210937503298,0.00034107917623150486
183.382089843783,0.0005066082326875319
183.58207031253303,0.001749969068747723
183.7820507812831,0.00030502498117334677
183.98203125003312,0.00043995729356011967
184.18201171878314,0.0009852399026443403
184.3819921875332,0.001115243925753658
184.58197265628323,0.00048637895728545727
184.78195312503325,0.0008738482082461728
184.9819335937833,0.001518705650935783
185.18191406253334,0.0007809501920366447
185.38189453128336,0.0003641129296485461
185.58187500003342,0.0007351908140088444
185.78185546878345,0.0008820946079742301
185.98183593753348,0.0005888241218044059
186.1818164062835,0.0009075734615258933
186.38179687503356,0.001234817533903582
186.58177734378359,0.0006057382410109023
186.7817578125336,0.0012014570506485036
186.98173828128367,0.0012648710849426695
187.1817187500337,0.000546691526318498
187.38169921878372,0.0007604263083501381
187.58167968753378,0.0017703597564865216
187.7816601562838,0.0007790350603068957
187.98164062503383,0.0004793865981816941
188.1816210937839,0.0006427465834168665
188.38160156253392,0.002063817560208974
188.58158203128394,0.0012261320632357912
188.78156250003397,0.0009280396504775194
188.98154296878403,0.0003277757571938291
189.18152343753405,0.0007489733873052027
189.38150390628408,0.0014223417739492247
189.58148437503414,0.0012138602445608483
189.78146484378416,0.000488577117528012
189.9814453125342,0.0005360090803777026
190.18142578128425,0.0005991849805905039
190.38140625003427,0.0012202656066259776
190.5813867187843,0.0004882830184832501
190.78136718753436,0.001803381643329198
190.98134765628438,0.0008102303813759689
191.1813281250344,0.0008299484424640366
191.38130859378444,0.0008165457482565892
191.5812890625345,0.0009257322777161197
191.78126953128452,0.0011886495632342194
191.98125000003455,0.0010388089374172604
192.1812304687846,0.0003468245015918066
192.38121093753463,0.001114081889233691
192.58119140628466,0.0014273024296838517
192.78117187503472,0.00018723227791171048
192.98115234378474,0.000627836674153332
193.18113281253477,0.0008207742668309697
193.38111328128483,0.00043967056908787673
193.58109375003485,0.001159156034895929
193.78107421878488,0.00028712101705800056
193.9810546875349,0.0005277829562067856
194.18103515628496,0.00048503083026014043
194.381015625035,0.0006653121932618486
194.58099609378502,0.00044133245613949034
194.78097656253507,0.0008216847432242296
194.9809570312851,0.0003579570072175734
195.18093750003513,0.000745622284862424
195.38091796878518,0.0015254697634396767
195.5808984375352,0.0010882320220840273
195.78087890628524,0.0005569791505620544
195.9808593750353,0.00088722466548712
196.18083984378532,0.0003413191560822755
196.38082031253535,0.0011606873907302159
196.58080078128538,0.0011538325838547363
196.78078125003543,8.232168135784616e-05
196.98076171878546,0.001324293721277391
197.1807421875355,0.0006784376118797831
197.38072265628554,0.0017480765708622694
197.58070312503557,0.0011570373515819546
197.7806835937856,0.0015696272129415698
197.98066406253565,0.0008078706179779206
198.18064453128568,0.0006956163472329913
198.3806250000357,0.00048496443434323054
198.58060546878573,0.0007812027257058728
198.7805859375358,0.0019022283563401893
198.98056640628582,0.0008983819003198957
199.18054687503584,0.0009073998233429753
199.3805273437859,0.0005043236295304933
199.58050781253593,0.0006099739956656981
199.78048828128595,0.0011537438600022535
199.980468750036,0.0014205830183485792
200.18044921878604,0.0008259878271200165
200.38042968753606,0.0004424402783097333
200.58041015628612,0.0007867482587690794
200.78039062503615,0.0005053847481780185
200.98037109378618,0.0010521335041177426
201.1803515625362,5.469462380067634e-05
201.38033203128626,0.000412256556492544
201.58031250003629,0.0007693782515772992
201.7802929687863,0.0005192546948671064
201.98027343753637,0.0010375192032546887
202.1802539062864,0.0014564949278632819
202.38023437503642,0.0012481330038679966
202.58021484378648,0.00036442987090911
202.7801953125365,0.0013811233505017493
202.98017578128653,0.0015352552231622787
203.1801562500366,0.0007904491018317105
203.38013671878662,0.000905925792263076
203.58011718753664,0.0003412920286571926
203.78009765628667,0.0006740441208938736
203.98007812503673,0.0009627608453937488
204.18005859378675,0.001666100527224998
204.38003906253678,0.0008742320996499875
204.58001953128684,0.0005961033366362799
204.78000000003686,7.454776406028084e-05
204.9799804687869,0.0006761080683678228
205.17996093753695,0.0003415202273027939
205.37994140628697,0.000452462207979713
205.579921875037,0.0005816161705911502
205.77990234378706,0.0005727618622070889
205.97988281253708,0.0012842865585017966
206.1798632812871,0.0005911942625614823
206.37984375003714,0.0004261570759697914
206.5798242187872,0.00034041808266003197
206.77980468753722,0.00020343653246467764
206.97978515628725,0.0010721399007446349
207.1797656250373,0.0011430925911726888
207.37974609378733,0.0012280848197862625
207.57972656253736,0.0009230749384156276
207.77970703128742,0.0014706054841602525
207.97968750003744,0.00037548941092960605
208.17966796878747,0.0008577847319600931
208.37964843753753,0.0007562623980692192
208.57962890628755,0.0003547768297141308
208.77960937503758,0.0005920190297466741
208.9795898437876,0.0015112891901253077
209.17957031253766,0.0013692399729929433
209.3795507812877,0.0016665772034188593
209.57953125003772,0.0007782249082648597
209.77951171878777,0.0002515421979470716
209.9794921875378,0.0005488256239943313
210.17947265628783,0.00031925664942548574
210.37945312503788,0.00047506780730705207
210.5794335937879,0.00019763101148470198
210.77941406253794,0.0010195570582966578
210.979394531288,0.0006082810702352051
211.17937500003802,0.0004932093453235293
211.37935546878805,0.0006243182141425019
211.57933593753808,0.0003527859800760241
211.77931640628813,0.0009965833355431914
211.97929687503816,0.0011200215538420858
212.1792773437882,0.001567116123839259
212.37925781253824,0.0004549252017220658
212.57923828128827,0.0003305879034159473
212.7792187500383,0.0016062320019097926
212.97919921878835,0.0009193266905836415
213.17917968753838,0.0006854478825149848
213.3791601562884,0.000820468916032266
213.57914062503843,0.00023196846243710652
213.7791210937885,0.00043697544823756326
213.97910156253852,0.0007901796720882958
214.17908203128854,0.0008528255199526662
214.3790625000386,0.0005241488455643414
214.57904296878863,0.0011776139986882659
214.77902343753865,0.0014128233254142753
214.9790039062887,0.0006845265945456267
215.17898437503874,0.0005284023873541337
215.37896484378876,0.0002479345024289916
215.57894531253882,0.0003617051302564143
215.77892578128885,0.00022705818316146338
215.97890625003888,0.0002446055007685111
216.1788867187889,0.0007731380142415649
216.37886718753896,0.0002690345770335524
216.57884765628899,0.000348186998747829
216.778828125039,0.0002500532913694553
216.97880859378907,0.001034752063782912
217.1787890625391,0.0003747976670288681
217.37876953128912,0.0007593637595160726
217.57875000003918,0.00010504001018472494
217.7787304687892,0.0011097173947167518
217.97871093753923,0.0005030568125295078
218.1786914062893,0.0006586134876909636
218.37867187503932,0.0007394979870566538
218.57865234378934,0.0003811264518203628
218.77863281253937,0.0009097977663867281
218.97861328128943,0.0010844871656517402
219.17859375003945,0.000563276497784609
219.37857421878948,0.000561473554181679
219.57855468753954,0.0008141156495497179
219.77853515628956,0.0005345875363447831
219.9785156250396,0.0006370777797480903
220.17849609378965,0.000747598848304761
220.37847656253967,0.0006598461782989552
220.5784570312897,0.0010516580734492
220.77843750003976,0.0005529550699067968
220.97841796878978,0.00012411606741506587
221.1783984375398,0.0005873325104950818
221.37837890628984,0.0006895198190011451
221.5783593750399,0.0008117470092029426
221.77833984378992,0.0008035105133166307
221.97832031253995,0.001342689226825401
222.17830078129,0.00043532103454912833
222.37828125004003,0.00036471592741313836
222.57826171879006,0.0006293658469096081
222.77824218754012,0.000389555234536045
222.97822265629014,0.0006260260740894195
223.17820312504017,0.0014134452686874175
223.37818359379023,0.0013407866133146103
223.57816406254025,0.00017613134041051927
223.77814453129028,0.00029423536144738163
223.9781250000403,0.0008158502024050857
224.17810546879036,0.0013485314003201581
224.3780859375404,0.0009507689769224991
224.57806640629042,0.0002994065561856209
224.77804687504047,0.0002945485236431385
224.9780273437905,0.0009804199523630386
225.17800781254053,0.0017699638567373263
225.37798828129058,0.000816488467437824
225.5779687500406,0.00041388627297700583
225.77794921879064,0.0008782596009864071
225.9779296875407,0.001069631040360446
226.17791015629072,0.0003065647007050393
226.37789062504075,0.0003371465089782412
226.57787109379078,0.0008797977872405746
226.77785156254083,0.0017484028263830742
226.97783203129086,0.0013339427585661668
227.1778125000409,0.000650826550272465
227.37779296879094,0.0004993905500837088
227.57777343754097,0.0005525628446612792
227.777753906291,0.001167579240686645
227.97773437504105,0.0009915832080800713
228.17771484379108,0.0004334127978467151
228.3776953125411,0.0010272429242852914
228.57767578129113,0.00020780574143321
228.7776562500412,0.0005066516808538141
228.97763671879122,0.0009618215288633421
229.17761718754124,0.0008279756450851475
229.3775976562913,0.00119475095867838
229.57757812504133,0.0005593672906789763
229.77755859379135,0.0010907284728287156
229.9775390625414,0.0007605854301879905
230.17751953129144,0.0007058848140705366
230.37750000004147,0.0003841913432625858
230.57748046879152,0.0007080867342339418
230.77746093754155,0.0009235424643141695
230.97744140629158,0.00043511077332182764
231.1774218750416,0.0007882592771009657
231.37740234379166,0.0010003706430349677
231.57738281254169,0.0004707529453735536
231.7773632812917,0.0008488554762481654
231.97734375004177,0.0007270446629287597
232.1773242187918,0.0004790232173219804
232.37730468754182,0.0007816147338987128
232.57728515629188,0.0001717176637916541
232.7772656250419,0.00025599053757199613
232.97724609379193,0.0007122981717407346
233.177226562542,0.000339102759819886
233.37720703129202,0.0010112967736961647
233.57718750004204,0.0005420482815210449
233.77716796879207,0.0015972815383761222
233.97714843754213,0.001254597218719234
234.17712890629215,0.0016825965911428512
234.37710937504218,0.0011147883371182333
234.57708984379224,0.0006708596246964042
234.77707031254226,0.0008015236276925482
234.9770507812923,0.0003983417873698273
235.17703125004235,0.00017815376007071902
235.37701171879237,0.0007203305783335205
235.5769921875424,0.0001890947496343455
235.77697265629246,0.0004381140729753417
235.97695312504248,0.00024292033373585374
236.1769335937925,0.0007915032835931513
236.37691406254254,0.000491309230866491
236.5768945312926,0.000712898012597989
236.77687500004262,0.0008578575513399698
236.97685546879265,0.0006318609815527354
237.1768359375427,0.0004443767564903163
237.37681640629273,0.0009829279826508125
237.57679687504276,0.0004975338412066411
237.77677734379282,0.0008033524382028934
237.97675781254284,8.383697482333485e-05
238.17673828129287,0.001019535132466654
238.37671875004293,0.0015931739094628876
238.57669921879295,0.0011550014394383261
238.77667968754298,0.00048778699496738754
238.976660156293,0.00015621840169168676
239.17664062504306,0.00018408860829563755
239.3766210937931,0.001277134901257508
239.57660156254312,0.001283023913131849
239.77658203129317,0.0010156069476476891
239.9765625000432,0.0008961545754815228
240.17654296879323,0.001711867661516818
240.37652343754328,0.0005645417193583244
240.5765039062933,0.0010144968921904894
240.77648437504334,0.0005558368044771931
240.9764648437934,0.0004607113011431588
241.17644531254342,0.000785046272408795
241.37642578129345,0.00022050195184390392
241.57640625004348,0.00064736989286648
241.77638671879353,0.0004985110201102736
241.97636718754356,0.0006857637064386084
242.1763476562936,0.00043889986301336875
242.37632812504364,0.000752371280343193
242.57630859379367,0.0014718103160238593
242.7762890625437,0.000979421828035359
242.97626953129375,0.0012078722823597949
243.17625000004378,0.0001913028573099595
243.3762304687938,0.0003189837207860367
243.57621093754383,0.00042683970319273823
243.7761914062939,0.0012666982537465718
243.97617187504392,0.00026019836313636544
244.17615234379394,0.00100929231003675
244.376132812544,0.002170993556722033
244.57611328129403,0.0008548724453360402
244.77609375004405,0.0009278289516912168
244.9760742187941,0.0007910429353880579
245.17605468754414,0.0002576950958646885
245.37603515629417,0.00035842566101253046
245.57601562504422,0.0007832241870031617
245.77599609379425,0.0005893418153436055
245.97597656254428,0.00043260447019795816
246.1759570312943,0.0004486941603584982
246.37593750004436,0.000376199978846666
246.57591796879439,0.00043904807919455097
246.7758984375444,0.00035972507199791135
246.97587890629447,0.0005019928547892415
247.1758593750445,0.0008086580134039238
247.37583984379452,0.00040128563375143634
247.57582031254458,0.001147305266115497
247.7758007812946,0.0002809176400330904
247.97578125004463,0.00032896376036993015
248.1757617187947,0.00017177552710442005
248.37574218754472,0.0005875400746458335
248.57572265629474,0.0007136706754962779
248.77570312504477,0.0003911208088954033
248.97568359379483,0.0002692467431903268
249.17566406254485,0.0008154090726363804
249.37564453129488,0.00047123625965336623
249.57562500004494,0.0006375606954485576
249.77560546879496,0.0004850882035133196
249.975585937545,0.0005787902143167816
250.17556640629505,0.0005211396883418325
250.37554687504507,0.00028540906425680585
250.5755273437951,0.0002997836127708238
250.77550781254516,0.0005853542797903789
250.97548828129518,0.001251343627537166
251.1754687500452,0.0006465821159450189
251.37544921879524,0.0010987341185147881
251.5754296875453,0.001085873788906622
251.77541015629532,0.0008891864128003357
251.97539062504535,0.0003106757777439308
252.1753710937954,0.0008894640162117381
252.37535156254543,0.00022739799851589378
252.57533203129546,0.0007151026494907517
252.77531250004552,0.0003210327937846226
252.97529296879554,0.00013950252438488356
253.17527343754557,0.0003546621963903378
253.37525390629563,0.00026766600618077725
253.57523437504565,0.0005975533456876229
253.77521484379568,0.0008156394661446086
253.9751953125457,0.0012153807468346534
254.17517578129576,0.0005877808689853251
254.3751562500458,0.0002959302140161896
254.57513671879582,0.0009521890072569794
254.77511718754587,0.0009880081137714674
254.9750976562959,0.0006063878779647792
255.17507812504593,0.0010442116570225461
255.37505859379598,0.0009779022440610967
255.575039062546,0.0004398189522604556
255.77501953129604,0.0002495519201843723
255.97500000004607,0.001142568334591597
256.1749804687961,0.0006890918326487773
256.3749609375462,0.0009010284358004138
256.5749414062962,0.00037766038665895153
256.77492187504623,0.0010408338845371869
256.97490234379626,0.0009576296766225193
257.1748828125463,0.0005672067687601648
257.3748632812963,0.0005805056620605644
257.57484375004634,0.00039012058409322185
257.7748242187964,0.0004006276056335038
257.97480468754645,0.0006510594345850015
258.1747851562965,0.00045697839006598724
258.3747656250465,0.0007954599540871258
258.57474609379653,0.0002234738900023704
258.77472656254656,0.00014820933013819895
258.97470703129665,0.0005920559315624693
259.1746875000467,0.0006019408876967662
259.3746679687967,0.00016051484667881468
259.5746484375467,0.0002705899620544658
259.77462890629675,0.00047638833836451626
259.9746093750468,0.0006686826405593992
260.1745898437968,0.000538990188445804
260.3745703125469,0.000276472894440028
260.5745507812969,0.0004148044791286985
260.77453125004695,0.00040699728433556885
260.974511718797,0.00043644568334876704
261.174492187547,0.0005092373096284939
261.37447265629703,0.0008209223369846099
261.5744531250471,0.0009280438173126531
261.77443359379714,0.0007744868635346997
261.97441406254717,0.00025935623676909915
262.1743945312972,0.0005472485972293553
262.3743750000472,0.0010972689077048687
262.57435546879725,0.0005542567281095607
262.7743359375473,0.0004159794704058529
262.97431640629736,0.001168070496703501
263.1742968750474,0.0005639501572987484
263.3742773437974,0.0006015273712488291
263.57425781254744,0.0007121703715857906
263.77423828129747,0.0002397507419578557
263.9742187500475,0.0007825775009559019
264.1741992187976,0.0008516487068081801
264.3741796875476,0.00044319463018114327
264.57416015629764,0.0004711673690120771
264.77414062504766,0.0004863500053092775
264.9741210937977,0.0004823053475507585
265.1741015625477,0.00020836892246939602
265.37408203129775,0.0009570080272559493
265.57406250004783,0.00048121128629982656
265.77404296879786,0.0008526312082143271
265.9740234375479,0.0004952613725161653
266.1740039062979,0.0004642989630912206
266.37398437504794,0.0005142705003333266
266.57396484379797,0.00042479267481573905
266.77394531254805,0.0006367651447798398
266.9739257812981,0.0010402647238572753
267.1739062500481,0.0006056490319530468
267.37388671879813,0.0006412731822474101
267.57386718754816,0.0001204037263858469
267.7738476562982,0.0003949580805630278
267.9738281250482,0.001122108850090131
268.1738085937983,0.0001664933769378349
268.3737890625483,0.0011088139636592361
268.57376953129835,0.0006177507915088197
268.7737500000484,0.0005989296614171658
268.9737304687984,0.00014057368856381738
269.17371093754844,0.00038612250770626334
269.3736914062985,0.000732266652485278
269.57367187504855,0.0003634512816741779
269.7736523437986,0.00045846754176111964
269.9736328125486,0.00040714331217685707
270.1736132812986,0.0010706549445468813
270.37359375004866,0.0006544879472691638
270.5735742187987,0.0005457579171400534
270.77355468754877,0.0005769987850614843
270.9735351562988,0.0006941776233110519
271.1735156250488,0.000424628204844481
271.37349609379885,0.00022326993714787675
271.5734765625489,0.0005658170212669467
271.7734570312989,0.0007373131821170453
271.973437500049,0.00036890479870398
272.173417968799,0.0006459461620228354
272.37339843754904,0.000577581620301204
272.57337890629907,0.0005791641493176851
272.7733593750491,0.0005994516171595372
272.9733398437991,0.0008466367482339774
273.17332031254915,0.0011570171539486954
273.37330078129924,0.0009772844844421562
273.57328125004926,0.0007298681578279624
273.7732617187993,0.0009438797671546472
273.9732421875493,0.0004105508094027254
274.17322265629934,0.0005313184614979992
274.3732031250494,0.000808140287243479
274.57318359379946,0.00028061979525579277
274.7731640625495,0.0010351347934559716
274.9731445312995,0.0006586009913657534
275.17312500004954,0.000430657243968941
275.37310546879957,0.0003796773616699203
275.5730859375496,0.0002299611112939054
275.7730664062996,0.0007874198381260149
275.9730468750497,0.000622564960637376
276.17302734379973,0.0003595243751887331
276.37300781254976,0.00011463521102538066
276.5729882812998,0.0006068588729096869
276.7729687500498,0.0002547316647820063
276.97294921879984,0.0002620550333922732
277.1729296875499,7.234778469922921e-05
277.37291015629995,0.0003387292239582603
277.57289062505,0.000300413223137976
277.7728710938,0.0010882644581729026
277.97285156255003,0.00036031934956840526
278.17283203130006,0.0004511925558446352
278.3728125000501,0.00042008207427183
278.5727929688002,0.0009717987705430096
278.7727734375502,0.00011262155188968585
278.9727539063002,0.0005890079606672787
279.17273437505025,0.0004374839497589511
279.3727148438003,0.00044469717049160475
279.5726953125503,0.0002370939107705039
279.77267578130034,0.000316627251798257
279.9726562500504,0.00026401217725368156
280.17263671880045,0.0009512666869035115
280.3726171875505,0.0002840087656521609
280.5725976563005,0.0006849927337851965
280.77257812505053,0.0007413762301579804
280.97255859380056,0.0004976918281145167
281.17253906255064,0.0006165306228876304
281.37251953130067,0.0005661575583384198
281.5725000000507,0.0004098730291471342
281.7724804688007,0.0003763675411586885
281.97246093755075,0.0002737650739793067
282.1724414063008,0.0003081861616969334
282.3724218750508,0.00038773919535034545
282.5724023438009,0.0003938629592285185
282.7723828125509,0.00013598402728139014
282.97236328130094,0.0005610747322373797
283.17234375005097,0.00048449760340872914
283.372324218801,0.0007523081853321296
283.572304687551,0.00034091060503384425
283.7722851563011,0.0003090753324684541
283.97226562505114,0.0002633137134959773
284.17224609380116,0.0004647146098178479
284.3722265625512,0.0001600249758843108
284.5722070313012,0.00042349143944361655
284.77218750005125,7.210999509929819e-05
284.9721679688013,0.00015498165012857166
285.17214843755136,0.0003240653674344944
285.3721289063014,0.00024230357992821727
285.5721093750514,0.0003910340540556866
285.77208984380144,0.00044655026410727147
285.97207031255147,0.00038679164270440217
286.1720507813015,0.0001254627588949816
286.3720312500516,0.0007248972103921945
286.5720117188016,0.0005803424860195706
286.77199218755163,0.00039092011138614196
286.97197265630166,0.0002120101077035495
287.1719531250517,0.000269418182341414
287.3719335938017,0.0011091878546982444
287.57191406255174,0.00022430194877555025
287.7718945313018,0.0006630208755581438
287.97187500005185,0.0004245008993353759
288.1718554688019,0.0004952663267029635
288.3718359375519,0.0007194508917571375
288.57181640630193,0.0008640452296451424
288.77179687505196,0.0006626206256891313
288.97177734380205,0.000992178012355039
289.1717578125521,0.0003723414221679858
289.3717382813021,0.00017314759898030645
289.5717187500521,0.0005749128083629939
289.77169921880215,0.0008774468879483263
289.9716796875522,0.000980175059053717
290.1716601563022,0.0005214259446358191
290.3716406250523,0.0005298416398784597
290.5716210938023,0.0005929306398264673
290.77160156255235,0.00018067968948734967
290.9715820313024,0.00025336852350944485
291.1715625000524,0.00024471828112072115
291.37154296880243,0.0005580926671762874
291.5715234375525,0.0004808838393969542
291.77150390630254,0.0007986394207839372
291.97148437505257,0.000526662067748762
292.1714648438026,0.0005718601366916739
292.3714453125526,7.90191428544358e-05
292.57142578130265,0.0006313155125562763
292.7714062500527,0.00018641972812953296
292.97138671880276,0.00017880746791243697
293.1713671875528,0.0006737834500029955
293.3713476563028,0.0006018487625296975
293.57132812505284,7.438479041187722e-05
293.77130859380287,0.0006323939926765501
293.9712890625529,0.0007730831904367417
294.171269531303,0.0006146067071759114
294.371250000053,0.00020127679443892406
294.57123046880304,0.0007117179352876889
294.77121093755306,0.0006997495593950565
294.9711914063031,0.0008102494209621201
295.1711718750531,0.0011466178866761897
295.37115234380315,0.00033975385220260486
295.57113281255323,0.0007075822993942909
295.77111328130326,0.00010467218552005997
295.9710937500533,0.0004809413271664798
296.1710742188033,0.00012694035551958526
296.37105468755334,0.00012941033497223758
296.57103515630337,0.0005039375819907963
296.77101562505345,0.0003417651981207649
296.9709960938035,0.0009754112729438767
297.1709765625535,0.0012032021559593685
297.37095703130353,0.000347196446049321
297.57093750005356,0.0011460969226571459
297.7709179688036,0.0010676408460066557
297.9708984375536,0.0014833181688365873
298.1708789063037,0.0006035806413849931
298.3708593750537,0.000283297737899713
298.57083984380375,0.0002871291296067345
298.7708203125538,0.00042721513637723345
298.9708007813038,9.322198373936549e-05
299.17078125005384,0.001085331111674843
299.3707617188039,0.0002492757952001155
299.57074218755395,0.0005815649154427154
299.770722656304,0.00017698630651215636
299.970703125054,0.0005594423688605803
300.17068359380403,0.0002805703684467521
300.37066406255406,0.0006598304470563521
300.5706445313041,0.0005140843976619651
300.77062500005417,0.0002683781371654027
300.9706054688042,0.0008029411739438057
301.1705859375542,0.0007841438921319237
301.37056640630425,0.0006284542893292505
301.5705468750543,0.00011326081060590652
301.7705273438043,0.0004979119480979518
301.9705078125544,0.0008667938162188263
302.1704882813044,0.0007892254810886169
302.37046875005444,0.0004026925539846017
302.57044921880447,0.00039306573335623566
302.7704296875545,0.0006627563038936455
302.9704101563045,0.00038870843696468956
303.17039062505455,0.000141954121833151
303.37037109380464,0.00011313993110405245
303.57035156255466,0.00018313362049551812
303.7703320313047,0.0006518782739803637
303.9703125000547,0.0006953039998688923
304.17029296880474,0.0003109715245901545
304.3702734375548,0.00035155630450998325
304.57025390630486,0.0002629298249560971
304.7702343750549,0.0005813903641770628
304.9702148438049,0.0006738914076495853
305.17019531255494,0.0006863626092697015
305.37017578130497,0.0002233190588339707
305.570156250055,0.0009306616648071322
305.770136718805,0.0007242186100593637
305.9701171875551,0.00036705549475055257
306.17009765630513,0.00014189392801371102
306.37007812505516,0.00038369727453264034
306.5700585938052,0.000574715354539047
306.7700390625552,0.0003561235642708728
306.97001953130524,0.0002732167604778713
307.1700000000553,0.0007334497329914073
307.36998046880535,0.0005073067346620423
307.5699609375554,5.37761470667229e-05
307.7699414063054,0.0003400226862509694
307.96992187505543,0.00038240966283943623
308.16990234380546,0.0005152712231747357
308.3698828125555,0.0007939607079437601
308.5698632813056,0.0006342943884291104
308.7698437500556,0.0004953629529780142
308.9698242188056,0.0010672858439753211
309.16980468755565,0.001209927393797101
309.3697851563057,0.00019341423186720495
309.5697656250557,0.0005229419622790869
309.76974609380574,0.0006146921390747054
309.9697265625558,0.0008066851045693592
310.16970703130585,0.000564163166183565
310.3696875000559,0.0009376547912380321
310.5696679688059,0.0007804343428131831
310.76964843755593,0.0002867928047370004
310.96962890630596,0.000890777746178517
311.16960937505604,0.00021416828665741535
311.36958984380607,0.00041554093831936936
311.5695703125561,0.00041122169180651336
311.7695507813061,0.0001332491161850671
311.96953125005615,0.001172475053549685
312.1695117188062,0.00026498700514355084
312.3694921875562,0.000417486874209932
312.5694726563063,0.00036010568957982125
312.7694531250563,0.0007338304611222625
312.96943359380634,0.0004652107776810103
313.16941406255637,0.00013889957089306364
313.3693945313064,0.0005262108592476001
313.5693750000564,0.00038882187453711853
313.7693554688065,0.00022394243895600252
313.96933593755654,0.0002304417512809634
314.16931640630656,0.0006961907152245161
314.3692968750566,0.000347374375695624
314.5692773438066,0.0005728208695550857
314.76925781255665,0.0004171733315977936
314.9692382813067,0.0004844944254927065
315.16921875005676,0.00047103919014133413
315.3691992188068,0.0006631284164063525
315.5691796875568,0.0003840160747333063
315.76916015630684,0.00029525586718455606
315.96914062505687,0.0008678436506937426
316.1691210938069,0.00042921103811191963
316.369101562557,0.0005001130078666674
316.569082031307,0.0007260874722571696
316.76906250005703,0.0005420231900235493
316.96904296880706,0.0004371080159710897
317.1690234375571,0.0007268224414426535
317.3690039063071,0.00028448083399478544
317.56898437505714,0.00035090056346480245
317.7689648438072,0.0009624872831314554
317.96894531255725,0.00014799762869498718
318.1689257813073,0.00039397992101378724
318.3689062500573,0.00028473656805280917
318.56888671880733,0.0006683282559206518
318.76886718755736,0.000563333400515952
318.96884765630745,0.0004150350462778654
319.1688281250575,0.0002381308846483907
319.3688085938075,9.207477129040057e-05
319.5687890625575,0.0008301256777309722
319.76876953130756,0.00048718513443089025
319.9687500000576,0.0005686236482757857
320.1687304688076,0.0004882225422704095
320.3687109375577,0.0002652752776377612
320.5686914063077,0.0005080753825772037
320.76867187505775,0.00034117499097703575
320.9686523438078,0.0003256958774499074
321.1686328125578,0.0005702041952391975
321.36861328130783,0.00043990820415688235
321.5685937500579,0.0010156279564715253
321.76857421880794,0.0005095690339331677
321.96855468755797,0.0004416865372597448
322.168535156308,0.00037346676725460255
322.368515625058,0.0011460502002102076
322.56849609380805,0.0005525691190215882
322.7684765625581,0.00029241818966045744
322.96845703130816,0.0002525877093201697
323.1684375000582,0.00010585485768250554
323.3684179688082,0.0006791632085317065
323.56839843755824,0.0002899832190083824
323.76837890630827,0.000394255248985804
323.9683593750583,0.0008898620847230161
324.1683398438084,0.0009561925540345957
324.3683203125584,0.00025371203152456016
324.56830078130844,0.0006007948675883736
324.76828125005846,0.000509416576882961
324.9682617188085,0.0005655908888473625
325.1682421875585,0.0004729400328729494
325.36822265630855,0.0001636775571287357
325.56820312505863,0.0003715195710649902
325.76818359380866,0.0002374676588062761
325.9681640625587,0.0005512439035863723
326.1681445313087,0.0006795547909806694
326.36812500005874,0.001050020320970373
326.56810546880877,0.0008212305190267831
326.76808593755885,0.00010149801005997252
326.9680664063089,0.0002769138105700136
327.1680468750589,0.00033883391747576645
327.36802734380893,0.00041217034196809344
327.56800781255896,0.0003302783999461485
327.767988281309,6.279157205915194e-05
327.967968750059,0.000628367376777775
328.1679492188091,0.00020473157334326923
328.3679296875591,0.0004085660392250278
328.56791015630915,1.3237861106935366e-05
328.7678906250592,0.0004100473568352782
328.9678710938092,0.0002917157480092576
329.16785156255924,0.0002133289196263698
329.3678320313093,0.000350284072826984
329.56781250005935,0.00048614251999439776
329.7677929688094,0.0004387119891733609
329.9677734375594,0.0006410492604636537
330.16775390630943,6.727661225225035e-05
330.36773437505946,0.0003614198157865651
330.5677148438095,0.00036786269514033033
330.76769531255957,0.00012156182524280984
330.9676757813096,0.0009219379878933036
331.1676562500596,0.000350462516398769
331.36763671880965,0.00048416669335401186
331.5676171875597,0.0002629100985231781
331.7675976563097,0.0005976093777925568
331.9675781250598,0.0003038541390043386
332.1675585938098,0.0008713078385004016
332.36753906255984,0.00014486950744037265
332.56751953130987,0.0002270966708397561
332.7675000000599,0.0006489107133081768
332.9674804688099,0.0003871159539161465
333.16746093755995,0.00033009357846980157
333.36744140631004,0.0005222580178990982
333.56742187506006,5.2142197580506775e-05
333.7674023438101,0.0004017857353534008
333.9673828125601,0.0002396363975639754
334.16736328131014,0.0003526317684754776
334.3673437500602,0.0003511926576021619
334.56732421881026,0.0005343052207242117
334.7673046875603,0.0002441253086209493
334.9672851563103,0.0007425690048820556
335.16726562506034,0.0009358830382785356
335.36724609381037,0.0008625587911946835
335.5672265625604,0.0005679443487817124
335.7672070313104,0.000667782221578903
335.9671875000605,0.0003582580067894714
336.16716796881053,0.00039068553144731497
336.36714843756056,1.2672069714975232e-05
336.5671289063106,0.0007651709063847317
336.7671093750606,0.0005203410268457527
336.96708984381064,0.00025434769582075863
337.16707031256067,0.0006611812619492973
337.36705078131075,0.0004939366879082402
337.5670312500608,0.00024075277049849213
337.7670117188108,0.0003910824145643648
337.96699218756083,0.000251056451494488
338.16697265631086,0.00044511552229456225
338.3669531250609,0.0005746582873843527
338.566933593811,0.00055738113288935
338.766914062561,0.000365422004273767
338.966894531311,0.0003162458811921073
339.16687500006105,0.00014898712274148484
339.3668554688111,0.00019241701793278412
339.5668359375611,0.0004241808223062335
339.76681640631114,0.0006089137151442998
339.9667968750612,0.0001406391430345336
340.16677734381125,0.00011195307479980284
340.3667578125613,0.000556799493834858
340.5667382813113,0.00023615707420790867
340.76671875006133,0.0005538696099969389
340.96669921881136,0.0005872328288717489
341.16667968756144,0.0003292444479412805
341.36666015631147,0.0003636435801569885
341.5666406250615,0.0007344669424716701
341.7666210938115,0.0004547637914483537
341.96660156256155,0.00028641334302307334
342.1665820313116,0.00040289780219105007
342.3665625000616,0.000529675663984047
342.5665429688117,0.00042771381262386195
342.7665234375617,0.00037882303992966583
342.96650390631174,0.0006061128923140763
343.16648437506177,0.0006806409381592456
343.3664648438118,0.00037247894716840407
343.5664453125618,0.0004239164726261172
343.7664257813119,0.00029909360105820804
343.96640625006194,0.0003017064801633943
344.16638671881196,9.637534950656612e-05
344.366367187562,0.00040243395890970614
344.566347656312,0.000692175213619592
344.76632812506205,0.00029445125909190114
344.9663085938121,0.00018185010716057555
345.16628906256216,0.00024393908486226507
345.3662695313122,0.0005210550616150774
345.5662500000622,0.001080350542437433
345.76623046881224,0.00022379556880374526
345.96621093756227,0.0007418352150322743
346.1661914063123,0.00020317792442710745
346.3661718750624,0.0007385117870030259
346.5661523438124,0.0004019769908706326
346.76613281256243,0.0003309847723800911
346.96611328131246,0.00028916543875066067
347.1660937500625,0.00024542615094956923
347.3660742188125,0.0007420960733470535
347.56605468756254,0.00039005264263646645
347.7660351563126,0.000554471172799973
347.96601562506265,0.00021201933156646255
348.1659960938127,0.00031940978610375055
348.3659765625627,0.0002655379451573154
348.56595703131273,0.0004508415806723413
348.76593750006276,0.0004455794119678008
348.96591796881285,0.000529065004405168
349.1658984375629,0.00043929337215076333
349.3658789063129,7.855005225702909e-05
349.5658593750629,0.00011528491910164549
349.76583984381296,7.669532262288606e-05
349.965820312563,0.00010692509141444905
350.165800781313,0.0003613645844802336
350.3657812500631,0.00018490565001422408
350.5657617188131,0.00033442013105732703
350.76574218756315,0.00012391019164532607
350.9657226563132,0.0004932981427744859
351.1657031250632,0.00040086654908339984
351.36568359381323,0.0002686162386931465
351.5656640625633,0.00018521815676504714
351.76564453131334,0.0004972436806576273
351.96562500006337,0.0004838553646182699
352.1656054688134,0.0005510146183720421
352.3655859375634,0.000226368537119306
352.56556640631345,0.00038542146032086513
352.7655468750635,1.0069060225404343e-05
352.96552734381356,0.0008386521553220537
353.1655078125636,0.00043552942338185115
353.3654882813136,0.0004630337499991848
353.56546875006364,2.5383743755174206e-05
353.76544921881367,0.0004877802118605619
353.9654296875637,0.0006105340256573117
354.1654101563138,0.00017543580475361804
354.3653906250638,0.00032455970226510857
354.56537109381384,0.0005840654635903135
354.76535156256386,0.00014435701946156448
354.9653320313139,0.0002582209684762314
355.1653125000639,0.00032169396433582545
355.36529296881395,0.0006452367310640985
355.56527343756403,0.0005075418185715056
355.76525390631406,0.00017391605482289149
355.9652343750641,0.00019857376301447486
356.1652148438141,0.00032647975243715687
356.36519531256414,0.00010991162462544327
356.56517578131417,0.0003706592939764364
356.76515625006425,0.0002602247604770052
356.9651367188143,0.0004387198847264161
357.1651171875643,0.0003364783445516875
357.36509765631433,0.0005170487409911571
357.56507812506436,0.000497903473418036
357.7650585938144,0.0007341463346718482
357.9650390625644,0.0004256400764238563
358.1650195313145,0.000563517948438817
358.3650000000645,0.0010581230233921456
358.56498046881455,0.0003901704154611754
358.7649609375646,0.0004022462947328474
358.9649414063146,0.0002604873406321363
359.16492187506464,0.0003833059784685685
359.3649023438147,0.00022600764752628386
359.56488281256475,0.0002842652479631557
359.7648632813148,0.00032899249607743847
359.9648437500648,0.000535827873041124
360.16482421881483,0.00032452402900160475
360.36480468756486,0.0003566273983292346
360.5647851563149,0.00015963831983266418
360.76476562506497,0.0005401068483649693
360.964746093815,0.00016185132388662506
361.164726562565,0.0003750729644559541
361.36470703131505,0.0005424936820335903
361.5646875000651,9.046235210691321e-05
361.7646679688151,0.00039654304204441316
361.9646484375652,0.00019190988894601045
362.1646289063152,0.00024960431382471844
362.36460937506524,2.2934832348827013e-05
362.56458984381527,4.341937963342677e-05
362.7645703125653,0.00025159008852531446
362.9645507813153,0.0001384960909693182
363.16453125006535,0.00017949424708783268
363.36451171881544,6.875095162447032e-05
363.56449218756546,0.0007545302008768761
363.7644726563155,0.00048099543503021553
363.9644531250655,0.0007009641601531362
364.16443359381555,0.00041490762533235773
364.3644140625656,0.0002797968684732271
364.56439453131566,0.00042818673152177165
364.7643750000657,0.0002027151315609557
364.9643554688157,0.0003438791184016187
365.16433593756574,0.00023702011430041484
365.36431640631577,0.0002920372758027137
365.5642968750658,0.0003531363680102622
365.7642773438158,0.0010911041366962807
365.9642578125659,0.00018407404721111013
366.16423828131593,0.00010402940113536665
366.36421875006596,0.0004963170542087246
366.564199218816,0.0007643781273606672
366.764179687566,0.00039530596382917824
366.96416015631604,0.00019904678202405657
367.16414062506607,0.0002774988938651171
367.36412109381615,0.0003061534118958094
367.5641015625662,0.00027806081954506165
367.7640820313162,0.0003365566819936975
367.96406250006623,0.00027995372508457327
368.16404296881626,0.0003985853447605961
368.3640234375663,0.00034024431633815095
368.5640039063164,0.0005974330477909512
368.7639843750664,0.00016581072178864978
368.9639648438164,0.0004786600363245031
369.16394531256645,0.0005836429606271699
369.3639257813165,0.000617073174400606
369.5639062500665,0.0008900086664577118
369.76388671881654,0.0006958723836322758
369.9638671875666,0.00010987310606123272
370.16384765631665,0.0001552190227418605
370.3638281250667,0.00023216444066731677
370.5638085938167,0.000278836554635134
370.76378906256673,0.0004460884917594381
370.96376953131676,0.00021367496162124687
371.16375000006684,0.0004182608585486975
371.36373046881687,0.00031147691707187133
371.5637109375669,0.0004904295018413516
371.7636914063169,0.0006685960708292129
371.96367187506695,0.00039896202599532774
372.163652343817,0.00018915716736918976
372.363632812567,0.0002698806578412354
372.5636132813171,0.0006504979652459905
372.7635937500671,0.0006366121675526879
372.96357421881714,0.0008122644777743861
373.16355468756717,0.0005970315227580846
373.3635351563172,0.00027651793561745726
373.5635156250672,0.0004663906470043719
373.7634960938173,0.00040820386571637163
373.96347656256734,0.00018946623774270782
374.16345703131736,0.0004717923798132761
374.3634375000674,0.00021798566836637502
374.5634179688174,0.000610420504417789
374.76339843756745,0.0006541215196821147
374.9633789063175,0.00028857250279927304
375.16335937506756,0.0006053174431706212
375.3633398438176,0.0002347049614137912
375.5633203125676,0.0005772436959060466
375.76330078131764,0.0001755900010669997
375.96328125006767,0.00036497477642040465
376.1632617188177,0.000524592313463591
376.3632421875678,0.0006802758507010322
376.5632226563178,0.0005227723757620569
376.76320312506783,0.000643858236417575
376.96318359381786,0.00030322126200262294
377.1631640625679,0.00048258415990075956
377.3631445313179,0.00045614253380016584
377.56312500006794,0.0006756893290892858
377.763105468818,0.00015812503349745444
377.96308593756805,0.0003394427867809005
378.1630664063181,0.00016434876761050967
378.3630468750681,5.896926992039463e-05
378.56302734381813,0.000913045818469516
378.76300781256816,0.0003131419084037093
378.96298828131825,8.393233671947706e-05
379.1629687500683,0.0004976707580329616
379.3629492188183,0.0002560534399670594
379.5629296875683,0.00011780912926994444
379.76291015631836,0.00042131762244317615
379.9628906250684,0.00022694769640387534
380.1628710938184,6.172379953767038e-05
380.3628515625685,0.0006592952399413658
380.5628320313185,0.00024697086831377803
380.76281250006855,0.0002884852081887677
380.9627929688186,0.00012818058732334565
381.1627734375686,0.00028560884755401695
381.36275390631863,0.00019982950875689615
381.5627343750687,3.4591183660570355e-05
381.76271484381874,0.0003392731364542116
381.96269531256877,0.00026534513168900004
382.1626757813188,0.0006057828051499543
382.3626562500688,0.00022240970500730483
382.56263671881885,0.00044815881213062386
382.7626171875689,0.00023743000240419943
382.96259765631896,0.0002838112485621751
383.162578125069,0.0007099918646091263
383.362558593819,0.000715802485300178
383.56253906256904,0.00035563402037056186
383.76251953131907,0.00024359630074116873
383.9625000000691,0.00010836723642409071
384.1624804688192,0.00024038024175548466
384.3624609375692,0.000438828180487457
384.56244140631924,0.00010323499183537754
384.76242187506926,0.00035581810957031787
384.9624023438193,0.00038984993897600524
385.1623828125693,8.707930049216994e-05
385.36236328131935,0.00031426582584750365
385.56234375006943,0.00016976065579745622
385.76232421881946,0.0003437633301323013
385.9623046875695,0.0003791654142384178
386.1622851563195,0.00048720875467262413
386.36226562506954,0.00029720620091777157
386.56224609381957,8.434040854657394e-05
386.76222656256965,0.00013467874850582487
386.9622070313197,8.115604733830138e-05
387.1621875000697,0.00023054200449166372
387.36216796881973,0.0006219694668525818
387.56214843756976,0.00036081823569514754
387.7621289063198,0.00015898942516576133
387.9621093750698,0.0005479149367452709
388.1620898438199,0.00043849501849873635
388.3620703125699,0.0003598927515382243
388.56205078131995,0.00027527747741705526
388.76203125007,0.00013099154237830414
388.96201171882,0.0003110273710344278
389.16199218757004,1.7720204487092176e-05
389.3619726563201,0.0001051095259702831
389.56195312507015,0.0001818224264552605
389.7619335938202,0.0002692085403945551
389.9619140625702,0.0003044913018937878
390.16189453132023,0.0004341574149452456
390.36187500007026,0.00017717104379039986
390.5618554688203,0.00023765997754312965
390.76183593757037,0.0004427263379392539
390.9618164063204,0.0005748232367658129
391.1617968750704,0.0004078533194252852
391.36177734382045,0.0005959752084844628
391.5617578125705,0.00015026341842051577
391.7617382813205,0.00012547431954564953
391.9617187500706,0.0001891833332713544
392.1616992188206,0.000491945980070275
392.36167968757064,0.0003371830727123351
392.56166015632067,0.0008089044419449479
392.7616406250707,0.0003914693094136436
392.9616210938207,0.0003737770502245845
393.16160156257075,0.0003355933011022147
393.36158203132084,5.28901111514327e-05
393.56156250007086,0.00023790578937640775
393.7615429688209,0.00022174123901061443
393.9615234375709,0.0002734269710286284
394.16150390632095,0.0004127943078039947
394.361484375071,0.000412546109987544
394.56146484382106,0.0005634464079954312
394.7614453125711,0.0004970601488135703
394.9614257813211,0.0004742312227066206
395.16140625007114,0.0005511427899530725
395.36138671882117,0.00042168494490582944
395.5613671875712,0.0001045986768604272
395.7613476563212,0.00024360562282051436
395.9613281250713,0.00040549690490225635
396.16130859382133,0.0004032387384974889
396.36128906257136,0.00030929665373056656
396.5612695313214,0.0003002575115459629
396.7612500000714,0.0002871874903313023
396.96123046882144,0.0004488742774648719
397.16121093757147,0.00018144997650027927
397.36119140632155,9.66255678719153e-05
397.5611718750716,0.00036794096010749327
397.7611523438216,9.852466956667512e-05
397.96113281257163,0.000227558600240188
398.16111328132166,0.000128697596683602
398.3610937500717,0.00046999464532800203
398.5610742188218,0.00039046402649250544
398.7610546875718,0.00045922731724297016
398.9610351563218,0.0005155664749707442
399.16101562507185,0.0005937547440757362
399.3609960938219,0.0004293129223711509
399.5609765625719,0.00042534622203322346
399.76095703132194,0.0001400923618112337
399.960937500072,0.0003473601567896222
400.16091796882205,0.00019748046099726186
400.3608984375721,0.0002381369404699628
400.5608789063221,0.00026383237822370694
400.76085937507213,0.000419453069256489
400.96083984382216,0.00014041720475767386
401.16082031257224,0.00027507035748250674
401.36080078132227,0.00022968873725978737
401.5607812500723,0.0001764007558434086
401.7607617188223,0.00016074162236976315
401.96074218757235,0.00027757211305828205
402.1607226563224,5.426249137236828e-05
402.3607031250724,0.00021296389067926208
402.5606835938225,0.0005999730362506598
402.7606640625725,0.00030525855564191446
402.96064453132254,0.0003814744960390957
403.16062500007257,0.00011270399214435359
403.3606054688226,9.655366818012498e-05
403.5605859375726,0.00044967351018989385
403.7605664063227,0.0005950670006489761
403.96054687507274,0.00038988036624026766
404.16052734382276,0.00023481217057622815
404.3605078125728,7.181431354680998e-05
404.5604882813228,0.0007782340639239933
404.76046875007285,0.0004378094563171251
404.9604492188229,0.0005014450131002918
405.16042968757296,0.00024600117244167165
405.360410156323,0.0003686828261727737
405.560390625073,6.434516603545122e-05
405.76037109382304,0.00025328738177911065
405.96035156257307,0.00022979871635126688
406.1603320313231,0.0002629512545513551
406.3603125000732,0.00030854371132913176
406.5602929688232,0.00020900746716145843
406.76027343757323,0.0003492989513850525
406.96025390632326,0.00026797807421431226
407.1602343750733,0.00034183924052731755
407.3602148438233,0.00010314155827986614
407.56019531257334,0.00027146406232544197
407.7601757813234,0.0002279287337596755
407.96015625007345,0.00020503753729532315
408.1601367188235,0.00044178596948812757
408.3601171875735,0.00024316668536944293
408.56009765632353,0.0005091246039376966
408.76007812507356,0.0003548274690653788
408.96005859382365,0.00011035548177818818
409.1600390625737,0.0002929065292080105
409.3600195313237,0.00022090129074375526
409.5600000000737,0.00015944469765734022
409.75998046882376,0.00012809440892981493
409.9599609375738,0.00021163618658780097
410.1599414063238,0.0005462796710450675
410.3599218750739,0.0005023922178078931
410.5599023438239,0.0003768512486680501
410.75988281257395,0.00037783220129497595
410.959863281324,0.00037023180750694353
411.159843750074,0.0004321711846831494
411.35982421882403,0.0001771880825812703
411.5598046875741,0.00023951755386254376
411.75978515632414,0.000528772724427117
411.95976562507417,0.0004898220666935288
412.1597460938242,0.00021665112613658834
412.3597265625742,0.00018711497582230637
412.55970703132425,0.00012131930884331756
412.7596875000743,0.00010056718512552919
412.95966796882436,0.0002933306090872169
413.1596484375744,0.0005340260813703784
413.3596289063244,0.00035677980233825643
413.55960937507444,0.00018476976775546835
413.7595898438245,0.0001301059355908099
413.9595703125745,0.00011879940457051562
414.1595507813246,0.0002671304120875617
414.3595312500746,5.881289532466181e-05
414.55951171882464,0.00035022749475348855
414.75949218757466,6.671211776267341e-05
414.9594726563247,0.0006097842384030374
415.1594531250747,0.00035301415483782146
415.35943359382475,0.00039615321358198386
415.55941406257483,0.0002722745315052734
415.75939453132486,0.0003343914941696395
415.9593750000749,0.0003102641649527198
416.1593554688249,0.00020526504232239921
416.35933593757494,0.00027594992889446276
416.55931640632497,0.000289211180443733
416.75929687507505,0.00020161044432479158
416.9592773438251,0.00036327600603225255
417.1592578125751,0.0005266435017529115
417.35923828132513,0.0005413274850669163
417.55921875007516,0.0003035233936798681
417.7591992188252,0.00021124943400072533
417.9591796875752,0.00016780130275147501
418.1591601563253,0.0001426771619519543
418.3591406250753,0.00029517939579966687
418.55912109382535,0.00035731520465052133
418.7591015625754,0.0003185206876607999
418.9590820313254,3.758819089233121e-05
419.15906250007544,0.00034573838183645487
419.3590429688255,0.00030846248886931256
419.55902343757555,0.0003964107182473497
419.7590039063256,0.00037496442669763787
419.9589843750756,0.0001775357782590058
420.15896484382563,0.00033383441893059955
420.35894531257566,0.00043948626636039544
420.5589257813257,0.00019694548155205856
420.75890625007577,0.00019005166014642277
420.9588867188258,4.195761158763919e-05
421.1588671875758,0.00015564392479393746
421.35884765632585,0.00028455161499079626
421.5588281250759,0.00013717650553339274
421.7588085938259,0.0001999800749979078
421.958789062576,0.00043589978462466603
422.158769531326,0.0002001129608937604
422.35875000007604,0.0001103099674171471
422.55873046882607,0.0003047699042262587
422.7587109375761,6.262891608063675e-05
422.9586914063261,0.00021987571519936066
423.15867187507615,3.32158302133304e-05
423.35865234382624,0.00046854578558819764
423.55863281257626,0.00010711141875424699
423.7586132813263,0.0002213692010776636
423.9585937500763,0.00025548476405225554
424.15857421882635,0.0004505569566485553
424.3585546875764,7.593624477963706e-05
424.5585351563264,0.00038951243494144826
424.7585156250765,0.00014281312074792838
424.9584960938265,0.0004491933111053461
425.15847656257654,9.661179044592878e-05
425.35845703132657,0.0002262140326089591
425.5584375000766,0.0002638247287589201
425.7584179688266,0.0001879170086384874
425.9583984375767,0.0002632027229591868
426.15837890632673,0.00032546946374397995
426.35835937507676,0.00023274545312242619
426.5583398438268,0.00022143914065966155
426.7583203125768,0.00034889348419496046
426.95830078132684,6.344913311093904e-05
427.15828125007687,0.0003474107905150425
427.35826171882695,0.0001919568081860428
427.558242187577,0.0003801049147492124
427.758222656327,4.865316221731259e-05
427.95820312507703,0.00022993002160490405
428.15818359382706,6.676336679586317e-05
428.3581640625771,9.728756869903645e-05
428.5581445313272,0.0003170890611271036
428.7581250000772,7.52607737529292e-05
428.9581054688272,0.0002035170328607604
429.15808593757725,9.701779950776476e-05
429.3580664063273,0.00012299097675985351
429.5580468750773,9.414981766891426e-05
429.75802734382734,0.00010854024408026614
429.9580078125774,0.0004546688592877919
430.15798828132745,0.00036243883940936377
430.3579687500775,0.0001142993169040708
430.5579492188275,0.0002724666037023473
430.75792968757753,0.0002441398458525315
430.95791015632756,0.00024617774254529254
431.15789062507764,0.0002006391954992542
431.35787109382767,0.0005448018527389015
431.5578515625777,0.0002850807687211227
431.7578320313277,0.0001366645029371514
431.95781250007775,0.00045299137788516926
432.1577929688278,0.00018397482878268893
432.3577734375778,6.595043695745641e-05
432.5577539063279,0.0001395237287882865
432.7577343750779,0.00018569469150057073
432.95771484382794,0.00014702126683921248
433.15769531257797,0.0003529509175481823
433.357675781328,6.2433679703881e-05
433.557656250078,0.00018250175265003762
433.7576367188281,0.00024059117042576558
433.95761718757814,0.00018264375601597058
434.15759765632816,0.00017645337707179607
434.3575781250782,0.00022909792201888056
434.5575585938282,6.788807040677827e-05
434.75753906257825,3.632999428767042e-05
434.9575195313283,0.00025637288346006405
435.15750000007836,0.00017983246932487223
435.3574804688284,0.0002438185942910723
435.5574609375784,0.00016661941780663617
435.75744140632844,0.00018941798517586387
435.95742187507847,0.00019983530315970775
436.1574023438285,0.00032815492773464517
436.3573828125786,0.00031805856137946144
436.5573632813286,0.0002547649286138157
436.75734375007863,0.0002621562613248292
436.95732421882866,0.0002914438775443487
437.1573046875787,0.00011279005046047825
437.3572851563287,0.0001684519670586287
437.55726562507874,0.00019811748612671943
437.7572460938288,0.00019892839948164347
437.95722656257885,0.0002547473167135154
438.1572070313289,0.00018054966563919937
438.3571875000789,0.00019290557642315598
438.55716796882894,0.00023352916687717826
438.75714843757896,0.00016252781540398976
438.95712890632905,8.843650526182728e-05
439.1571093750791,0.00013946379689519433
439.3570898438291,0.00011673854461272988
439.5570703125791,0.00019098572079235453
439.75705078132916,9.919375181278019e-05
439.9570312500792,0.0002887098597072986
440.1570117188292,0.00012835328537539678
440.3569921875793,0.00015046263523966997
440.5569726563293,0.00023347696128972578
440.75695312507935,0.00019417270817006875
440.9569335938294,0.0001913675920567007
441.1569140625794,7.61037471243752e-05
441.35689453132943,4.253876008817147e-05
441.5568750000795,7.939495045682668e-05
441.75685546882954,0.00017103500026370512
441.95683593757957,0.00022571323156967403
442.1568164063296,8.135296795627097e-05
442.3567968750796,4.372933597394726e-05
442.55677734382965,0.00019666715281715211
442.7567578125797,0.00012236019679347107
442.95673828132976,0.00021960103916511864
443.1567187500798,0.00021952478030017617
443.3566992188298,0.0002516222205439669
443.55667968757984,0.00024318265248001586
443.7566601563299,0.00015114423862872702
443.9566406250799,6.342361147240829e-05
444.15662109383,3.8766525742425426e-05
444.35660156258,0.00014489700799382067
444.55658203133004,0.00013399467143090186
444.75656250008007,0.00012031155208317855
444.9565429688301,0.00015150790143176988
445.1565234375801,0.00017588455047162644
445.35650390633015,0.00019864314496870824
445.55648437508023,0.0002636076099128115
445.75646484383026,3.6537628224092924e-05
445.9564453125803,0.00012878109916497654
446.1564257813303,0.0001838488729824022
446.35640625008034,0.00014453625532568625
446.55638671883037,4.2968203724118696e-05
446.75636718758045,9.325650094199033e-05
446.9563476563305,0.00010546320564234807
447.1563281250805,0.00034372046904540684
447.35630859383053,0.0001541863665873071
447.55628906258056,0.00025129953997667115
447.7562695313306,2.863038343551718e-05
447.9562500000806,5.2495968409715027e-05
448.1562304688307,0.00012512743690879755
448.3562109375807,0.0001978051904047588
448.55619140633075,0.00015855384119939042
448.7561718750808,0.00018213832271495698
448.9561523438308,0.0003280232382627094
449.15613281258084,0.0002735607009985283
449.3561132813309,0.0002790417125778963
449.55609375008095,0.0002131257887545673
449.756074218831,4.628589089696812e-05
449.956054687581,0.00023692003347093607
450.15603515633103,7.114572418687596e-05
450.35601562508106,6.442630265393293e-05
450.5559960938311,0.00013413450414363786
450.75597656258117,4.465307427913939e-05
450.9559570313312,0.00017865320032003546
451.1559375000812,0.00017075392706059073
451.35591796883125,0.00021282710276689226
451.5558984375813,0.00016427720295806634
451.7558789063313,9.176425531404651e-05
451.9558593750814,0.0001867297225698942
452.1558398438314,0.00019818268053853352
452.35582031258144,0.00010865674346874701
452.55580078133147,5.9777337502449904e-05
452.7557812500815,0.00010868423892314348
452.9557617188315,2.543227180971573e-05
453.15574218758155,3.1538829923283215e-05
453.35572265633164,0.00012421823085011314
453.55570312508166,5.397110033937715e-05
453.7556835938317,7.950226602762422e-05
453.9556640625817,0.0001383370128212907
454.15564453133175,0.0001159854471169552
454.3556250000818,0.00027093577565946123
454.5556054688318,0.00025013048543527796
454.7555859375819,0.00013152687796075407
454.9555664063319,0.00028365413827326994
455.15554687508194,6.128114269288037e-06
455.35552734383197,6.743875458345415e-05
455.555507812582,0.00013696239236371595
455.755488281332,9.445126335162537e-05
455.9554687500821,9.488638128809674e-05
456.15544921883213,1.0252120654660162e-05
456.35542968758216,6.340666394412155e-05
456.5554101563322,0.00023062840053146303
456.7553906250822,7.000139528398898e-05
456.95537109383224,0.00020132577625798384
457.15535156258227,0.0001295836228594298
457.35533203133235,2.8511312866779917e-05
457.5553125000824,0.00012436853744795916
457.7552929688324,6.708591262950053e-05
457.95527343758243,0.00020467380787120935
458.15525390633246,0.00011065967202527671
458.3552343750825,7.300572731637254e-05
458.5552148438326,4.646231915229053e-05
458.7551953125826,6.375790433412223e-05
458.9551757813326,4.940700890883255e-05
459.15515625008265,0.00017871335784653907
459.3551367188327,0.00016336894595677054
459.5551171875827,3.9358718740115416e-05
459.75509765633274,0.00011137961188642071
459.9550781250828,0.00011013116351667129
460.15505859383285,8.469222967754185e-05
460.3550390625829,0.00015070848627590067
460.5550195313329,0.00012321551421306837
460.75500000008293,8.28285558547651e-05
460.95498046883296,7.803493578573104e-05
461.15496093758304,6.79249313387052e-05
461.35494140633307,0.00018848517199171493
461.5549218750831,0.00016580709441703993
461.7549023438331,0.00016767616975046917
461.95488281258315,0.00013007224414971367
462.1548632813332,0.0001691577285925169
462.3548437500832,9.871057064353119e-05
462.5548242188333,0.00014739550646659797
462.7548046875833,0.0002209336505671469
462.95478515633334,0.00014367391379462344
463.15476562508337,7.081428155447341e-05
463.3547460938334,0.00010975093903456764
463.5547265625834,0.00015668741450737493
463.7547070313335,0.00014306443607535439
463.95468750008354,0.00013242302513829192
464.15466796883356,0.0001234470251331899
464.3546484375836,9.332141292497009e-05
464.5546289063336,6.930379107276918e-05
464.75460937508365,0.00010018554946081852
464.9545898438337,4.016100346841981e-05
465.15457031258376,6.55502243355971e-05
465.3545507813338,3.063310239092474e-05
465.5545312500838,5.9093096619269766e-05
465.75451171883384,0.0001356883439047974
465.95449218758387,0.00014450482919675173
466.1544726563339,2.4647869074652802e-05
466.354453125084,4.500723076836784e-05
466.554433593834,5.479647605618765e-05
466.75441406258403,0.00010188017779634977
466.95439453133406,0.00018390097190505955
467.1543750000841,0.00017747501870310037
467.3543554688341,0.00015445159154251444
467.55433593758414,0.00011790736001073012
467.7543164063342,0.0001396842961502902
467.95429687508425,7.769157995475844e-05
468.1542773438343,0.00010515340203329546
468.3542578125843,0.00018242816915110403
468.55423828133434,0.00013492142615956508
468.75421875008436,0.00020009978746659166
468.95419921883445,7.46719750270038e-05
469.1541796875845,0.00015712200819680773
469.3541601563345,0.00016688278351363953
469.55414062508453,0.00011597616525394577
469.75412109383456,0.00014523342088836158
469.9541015625846,4.1907444133365736e-05
470.1540820313346,6.791805476094419e-05
470.3540625000847,8.466997982054539e-05
470.5540429688347,7.098360539972228e-05
470.75402343758475,9.655820335846592e-05
470.9540039063348,0.0001118475096084212
471.1539843750848,8.086640509504011e-05
471.35396484383483,0.00010225086472768566
471.5539453125849,6.263100682054893e-05
471.75392578133494,0.00012768065315115032
471.95390625008497,2.6466792897287927e-05
472.153886718835,3.042105604667175e-05
472.353867187585,4.723215862795078e-05
472.55384765633505,0.00012504682310509346
472.7538281250851,6.148043220006139e-05
472.95380859383516,3.612607802315111e-05
473.1537890625852,1.4836329918350867e-05
473.3537695313352,0.00011907746247725499
473.55375000008524,3.1141892173056724e-05
473.7537304688353,8.442738998462845e-05
473.9537109375853,0.00011216183159013338
474.1536914063354,0.00014552613653728838
474.3536718750854,0.00011565271248215415
474.55365234383544,2.4407419734571995e-05
474.75363281258547,6.482581312800326e-05
474.9536132813355,5.159711685366465e-05
475.1535937500855,7.444281975469502e-05
475.35357421883555,5.686929334292164e-05
475.55355468758563,0.000124662725798688
475.75353515633566,0.0001090825311061718
475.9535156250857,6.06358730672611e-05
476.1534960938357,9.603843361984805e-05
476.35347656258574,3.7765363252843985e-05
476.55345703133577,5.118582890177269e-05
476.75343750008585,0.00010885073235586152
476.9534179688359,0.00011697642220193669
477.1533984375859,3.9067348521376456e-05
477.35337890633593,7.428213467519891e-05
477.55335937508596,8.759157754003448e-05
477.753339843836,6.166296333687179e-05
477.953320312586,3.59621386522319e-05
478.1533007813361,2.915169854172154e-06
478.3532812500861,0.00012042170558591105
478.55326171883615,0.00012872412080510196
478.7532421875862,4.258281169942033e-05
478.9532226563362,3.959869415612063e-05
479.15320312508624,0.00014962924197920946
479.3531835938363,2.2549582450771388e-05
479.55316406258635,0.00012804128860222671
479.7531445313364,5.54558618661606e-05
479.9531250000864,0.00012332807184996643
480.15310546883643,9.873356810868579e-05
480.35308593758646,7.847325123624858e-05
480.5530664063365,8.157479507204949e-05
480.75304687508657,0.00012125657242805833
480.9530273438366,4.675804007523283e-05
481.1530078125866,3.1562762298727404e-05
481.35298828133665,3.321491312302071e-05
481.5529687500867,5.683313869136905e-05
481.7529492188367,7.608027970781647e-05
481.9529296875868,0.000114534641698506
482.1529101563368,9.03261082825226e-05
482.35289062508684,1.4761347716907972e-05
482.55287109383687,5.705759169438407e-05
482.7528515625869,3.759958951196437e-05
482.9528320313369,7.780756932723394e-06
483.15281250008695,4.6546304855138805e-05
483.35279296883704,4.0079850858454115e-05
483.55277343758706,6.421715497928745e-06
483.7527539063371,2.0030408950016334e-05
483.9527343750871,2.9961590954306872e-05
484.15271484383715,4.2912829781136474e-05
484.3526953125872,3.4027443952877706e-05
484.5526757813372,8.938095596284102e-05
484.7526562500873,1.8365685005313622e-05
484.9526367188373,5.828355159141142e-05
485.15261718758734,8.687827078043058e-05
485.35259765633737,3.496778107661775e-05
485.5525781250874,4.7901497925009805e-05
485.7525585938374,6.068694691786221e-05
485.9525390625875,2.7216554411011015e-05
486.15251953133753,8.11504310205845e-05
486.35250000008756,4.84343032098997e-05
486.5524804688376,2.6026109041238696e-05
486.7524609375876,7.990441598686559e-05
486.95244140633764,3.278321056461629e-05
487.15242187508767,2.6381673873638077e-05
487.35240234383775,8.044684814997822e-05
487.5523828125878,4.1454365015202844e-05
487.7523632813378,5.411672192525273e-05
487.95234375008783,1.2068780616850552e-05
488.15232421883786,4.0951867983354314e-05
488.3523046875879,7.709582992585068e-05
488.552285156338,7.462267033405518e-05
488.752265625088,5.586571371166214e-05
488.952246093838,6.873545548656317e-05
489.15222656258806,1.2676738093049455e-05
489.3522070313381,4.4153014222179866e-05
489.5521875000881,8.909135808008103e-05
489.75216796883814,3.2723964110874e-05
489.9521484375882,5.8426219118980026e-05
490.15212890633825,3.1281209231940524e-05
490.3521093750883,8.122133206840938e-05
490.5520898438383,5.2949437530774277e-05
490.75207031258833,8.964233261977552e-05
490.95205078133836,4.4067511499279615e-05
491.15203125008844,5.039280989200051e-06
491.35201171883847,4.388992388717974e-06
491.5519921875885,6.674690421737452e-05
491.7519726563385,6.210947308734724e-05
491.95195312508855,6.86826500138251e-05
492.1519335938386,4.884489894509958e-05
492.3519140625886,1.931699131374576e-05
492.5518945313387,4.0548180174042344e-05
492.7518750000887,2.6305203331663152e-05
492.95185546883874,3.6950448660187836e-05
493.15183593758877,4.114781241420329e-05
493.3518164063388,0.00010563087941819856
493.5517968750888,5.787245205210494e-05
493.7517773438389,6.131612278392657e-05
493.95175781258894,9.290280698584186e-05
494.15173828133896,6.426295323126291e-05
494.351718750089,5.4393124039352e-05
494.551699218839,4.6305335889683985e-05
494.75167968758905,6.384446447719453e-05
494.9516601563391,3.306390739131466e-05
495.15164062508916,9.33151587422454e-06
495.3516210938392,8.566632977036172e-05
495.5516015625892,7.272338452772254e-05
495.75158203133924,2.9712990833241493e-05
495.95156250008927,7.471558966395249e-05
496.1515429688393,1.609500824553655e-05
496.3515234375894,5.777574808890616e-05
496.5515039063394,2.3301794383507924e-05
496.75148437508943,5.634895696591009e-05
496.95146484383946,7.104685210793834e-05
497.1514453125895,4.397376776708673e-05
497.3514257813395,6.68339638696095e-05
497.55140625008954,3.880363658761035e-05
497.7513867188396,8.620295368309475e-05
497.95136718758965,2.4890511715443646e-05
498.1513476563397,3.9838177885935034e-05
498.3513281250897,1.0333140718829996e-05
498.55130859383974,3.523083266263172e-05
498.75128906258976,8.012298564539716e-05
498.95126953133985,4.1332325752506475e-05
499.1512500000899,7.370905568903236e-05
499.3512304688399,4.069057911397614e-05
499.55121093758993,3.502439589482178e-05
499.75119140633996,4.9662005601763634e-05
499.95117187509,3.25104736171101e-05
500.15115234384,6.408257838954557e-05
500.3511328125901,2.1526740640999096e-05
500.5511132813401,7.328065862133055e-06
500.75109375009015,4.1364471522742285e-05
500.9510742188402,2.9783557081426168e-05
501.1510546875902,3.669682870997206e-05
501.35103515634023,4.0238080871726765e-05
501.5510156250903,3.3469300173361584e-05
501.75099609384034,2.9720175998452066e-05
501.95097656259037,3.459917234739351e-05
502.1509570313404,5.780300160879204e-05
502.3509375000904,5.555628291223726e-05
502.55091796884045,4.196630228616528e-05
502.7508984375905,3.999021945341555e-05
502.95087890634056,7.067778096164565e-05
503.1508593750906,4.107560692070278e-05
503.3508398438406,2.332013100363254e-05
503.55082031259064,1.3753633750239394e-05
503.7508007813407,2.9972699550461023e-05
503.9507812500907,4.3738036824847954e-05
504.1507617188408,5.50956616364758e-05
504.3507421875908,3.88102463841027e-05
504.55072265634084,1.380621590625969e-05
504.75070312509087,1.7858530542745628e-05
504.9506835938409,7.925813166985614e-06
505.1506640625909,1.5506460801541852e-05
505.35064453134095,3.545925271666361e-05
505.55062500009103,1.3414006536554044e-05
505.75060546884106,3.460244787471453e-05
505.9505859375911,6.6783894976741e-05
506.1505664063411,1.9495483714416326e-05
506.35054687509114,1.3920216466463665e-05
506.55052734384117,1.8421219643064257e-05
506.75050781259125,2.243722416547461e-05
506.9504882813413,3.168441393081885e-05
507.1504687500913,1.2859847210297608e-05
507.35044921884133,3.418851064481523e-05
507.55042968759136,2.9816185977091915e-05
507.7504101563414,1.850248640982375e-05
507.9503906250914,5.73312399272222e-06
508.1503710938415,1.671839735845296e-05
508.3503515625915,2.517844334705672e-05
508.55033203134155,2.170517178424116e-05
508.7503125000916,3.893218026305474e-05
508.9502929688416,1.137510971046839e-05
509.15027343759164,2.4099552146092872e-05
509.3502539063417,6.938517023651944e-06
509.55023437509175,1.668680310018174e-05
509.7502148438418,4.9177669234952307e-05
509.9501953125918,3.087334734717394e-05
510.15017578134183,1.935997316643098e-05
510.35015625009186,2.6634191575966475e-05
510.5501367188419,5.06117171267909e-06
510.75011718759197,2.6957114110299233e-05
510.950097656342,1.1238243860340426e-05
511.150078125092,4.043011713293266e-05
511.35005859384205,3.652773967032787e-05
511.5500390625921,2.902213420603466e-05
511.7500195313421,2.7878241093661172e-05
511.95000000009213,2.8167766156862833e-05
512.1499804688422,6.035375020182033e-05
512.3499609375922,4.176141255261182e-05
512.5499414063422,1.0054713318892217e-05
512.7499218750924,1.3503609625583141e-05
512.9499023438424,5.184415946144092e-05
513.1498828125924,3.490402926243718e-05
513.3498632813424,2.0956659616887085e-05
513.5498437500925,5.714779202233236e-06
513.7498242188425,3.1402146128243236e-05
513.9498046875925,1.850932824341912e-05
514.1497851563425,3.4022616459879854e-05
514.3497656250926,4.7793140672683484e-05
514.5497460938426,3.440043080669879e-05
514.7497265625926,9.215795668994203e-06
514.9497070313427,1.5210749022379965e-06
515.1496875000927,4.2269250398402125e-05
515.3496679688428,5.2276922025726336e-05
515.5496484375929,4.1034405077814506e-05
515.7496289063429,4.246452907164395e-06
515.9496093750929,2.1398732647325905e-05
516.1495898438429,2.4107074621421226e-05
516.349570312593,8.165508813799669e-06
516.549550781343,3.743147339585278e-05
516.749531250093,2.9266960932314813e-05
516.949511718843,3.742487405913598e-05
517.1494921875931,2.0894265417490527e-05
517.3494726563431,2.987817180577638e-05
517.5494531250931,3.070637208133708e-05
517.7494335938432,3.562175118065246e-05
517.9494140625933,2.951704386540137e-05
518.1493945313433,1.7561784296506456e-05
518.3493750000933,2.9450776698426777e-05
518.5493554688434,1.467982264952427e-05
518.7493359375934,1.7500629600221976e-05
518.9493164063434,1.5884732117108598e-05
519.1492968750935,2.4363699163458517e-05
519.3492773438435,6.127234732243301e-06
519.5492578125935,1.723648823592314e-05
519.7492382813435,8.043387611896531e-06
519.9492187500936,2.0789835334798708e-05
520.1491992188436,1.925694702908496e-05
520.3491796875936,2.5422706315539695e-05
520.5491601563438,5.639931893535958e-06
520.7491406250938,2.4102149114531084e-05
520.9491210938438,1.937858225086976e-05
521.1491015625938,1.7743569384462498e-05
521.3490820313439,2.8878724080420985e-05
521.5490625000939,2.5857070222562635e-05
521.7490429688439,2.077856501641134e-05
521.949023437594,3.1072988290395006e-05
522.149003906344,2.0760804613885818e-05
522.348984375094,3.1947831252856144e-05
522.548964843844,2.6752511980358005e-05
522.7489453125941,2.5429837424538158e-05
522.9489257813441,1.0323223879705923e-05
523.1489062500942,1.2602364789044568e-05
523.3488867188443,2.8108199070320984e-05
523.5488671875943,1.6798964657547318e-05
523.7488476563443,9.092387955334567e-06
523.9488281250943,1.676597314764767e-05
524.1488085938444,2.0877098987614634e-05
524.3487890625944,1.7502878047039488e-05
524.5487695313444,1.728689663064299e-05
524.7487500000944,1.99441526203815e-05
524.9487304688445,4.867382845133147e-06
525.1487109375945,6.671702546594487e-06
525.3486914063445,1.5413986827771994e-05
525.5486718750946,2.128180009837144e-06
525.7486523438447,1.0632982570135026e-05
525.9486328125947,1.2227619303434285e-05
526.1486132813448,1.004216543967267e-05
526.3485937500948,5.583908043139261e-06
526.5485742188448,1.1794359689844384e-05
526.7485546875948,1.3566324882737405e-05
526.9485351563449,1.6941423742195686e-05
527.1485156250949,2.0084495711086324e-05
527.3484960938449,9.234073453428626e-08
527.5484765625949,2.536665553702256e-05
527.748457031345,3.306756180578013e-05
527.948437500095,1.4525486419594056e-05
528.148417968845,9.917017488005432e-06
528.3483984375952,1.6896871133495037e-05
528.5483789063452,2.5361637510977053e-05
528.7483593750952,1.914921701861486e-05
528.9483398438452,2.8378640656620797e-05
529.1483203125953,2.7096400405705272e-05
529.3483007813453,8.450805991890944e-06
529.5482812500953,2.1838896472085344e-05
529.7482617188454,1.0952871550026288e-05
529.9482421875954,1.5572508782863956e-05
530.1482226563454,2.384208083559151e-05
530.3482031250954,1.8016618332961488e-05
530.5481835938455,5.201016100702694e-06
530.7481640625955,2.3912945989469895e-05
530.9481445313456,6.0113150846933986e-06
531.1481250000957,1.8705462956120696e-05
531.3481054688457,6.57190256147856e-06
531.5480859375957,3.6398538611866237e-06
531.7480664063457,4.755572241535005e-06
531.9480468750958,2.0295601980805337e-05
532.1480273438458,6.096885024974818e-06
532.3480078125958,1.3502438492449049e-05
532.5479882813459,1.4621551061602372e-05
532.7479687500959,4.854964524730121e-06
532.9479492188459,2.7333758723878247e-06
533.1479296875959,6.10385860980622e-06
533.347910156346,1.332662695332516e-05
533.5478906250961,2.044321710136511e-05
533.7478710938461,3.574164902692498e-07
533.9478515625962,1.2966225355454103e-05
534.1478320313462,4.284722081239958e-06
534.3478125000962,2.1489735306642906e-05
534.5477929688462,1.1467218596416352e-05
534.7477734375963,4.205704946653817e-06
534.9477539063463,7.62233197799707e-06
535.1477343750963,1.4244205249361873e-05
535.3477148438463,1.4548424578566671e-05
535.5476953125964,3.9161591724304245e-06
535.7476757813464,9.683247184133082e-06
535.9476562500964,8.273638940804296e-06
536.1476367188466,1.4777580957057387e-05
536.3476171875966,1.6277344258572404e-05
536.5475976563466,1.419935126661642e-05
536.7475781250967,5.990981517692906e-06
536.9475585938467,1.1864027021294999e-05
537.1475390625967,1.786964657641683e-06
537.3475195313467,1.248766998161536e-05
537.5475000000968,1.628299844566992e-05
537.7474804688468,5.625226274609262e-06
537.9474609375968,1.2178297769032594e-05
538.1474414063468,9.903045748741885e-06
538.3474218750969,6.006397804879976e-06
538.5474023438469,1.5473149439737144e-05
538.747382812597,1.517552897760128e-05
538.9473632813471,1.548246553381886e-05
539.1473437500971,1.1643666158794275e-05
539.3473242188471,9.176000392028401e-06
539.5473046875971,4.720562399038359e-06
539.7472851563472,2.369448400065077e-05
539.9472656250972,1.7185199094985895e-05
540.1472460938472,3.3614512300051883e-06
540.3472265625973,9.687427380186739e-06
540.5472070313473,4.6068237193365785e-06
540.7471875000973,6.276951579894926e-06
540.9471679688473,1.2029727855761281e-05
541.1471484375974,2.571711903577694e-06
541.3471289063475,1.1067045792370075e-05
541.5471093750975,1.586487852622159e-05
541.7470898438476,6.2879534150818165e-06
541.9470703125976,1.0078752358269474e-05
542.1470507813476,5.434327810545873e-06
542.3470312500976,1.4714787029289796e-06
542.5470117188477,6.80518192988294e-06
542.7469921875977,1.4531425802910065e-05
542.9469726563477,4.36539260975805e-06
543.1469531250978,9.703058288788352e-06
543.3469335938478,4.57770696790194e-06
543.5469140625978,1.0230829538999167e-05
543.7468945313478,1.685543542160197e-05
543.946875000098,1.0294452458514138e-05
544.146855468848,6.34330470543006e-06
544.346835937598,3.4823612702790836e-06
544.5468164063481,1.2784967908541266e-06
544.7467968750981,3.674378921074611e-06
544.9467773438481,1.1029918008728581e-05
545.1467578125981,7.794120140553036e-06
545.3467382813482,4.240562956075881e-06
545.5467187500982,7.93773601438826e-06
545.7466992188482,1.3593722943089238e-05
545.9466796875982,1.0908833036622205e-05
546.1466601563483,8.962095217290133e-06
546.3466406250983,9.815471521276519e-06
546.5466210938484,4.226622353003553e-06
546.7466015625985,1.4116075923887088e-05
546.9465820313485,6.223708552507135e-06
547.1465625000985,4.548391750258726e-06
547.3465429688486,1.0006742003447113e-05
547.5465234375986,8.474528479059599e-06
547.7465039063486,1.0605572433889531e-05
547.9464843750986,6.13739173839101e-06
548.1464648438487,8.755216142136227e-07
548.3464453125987,6.479779971006874e-06
548.5464257813487,1.356394179442199e-05
548.7464062500987,1.4936397020113031e-05
548.9463867188488,7.458265755892764e-06
549.1463671875989,3.0017401295848773e-06
549.3463476563489,3.411118582161391e-06
549.546328125099,9.671991731336345e-06
549.746308593849,3.2188392764651e-06
549.946289062599,8.169054908009442e-06
550.146269531349,1.207676062893326e-05
550.3462500000991,8.184220643457542e-06
550.5462304688491,1.508925990299352e-06
550.7462109375991,9.08077047282919e-06
550.9461914063492,5.5821215596400785e-06
551.1461718750992,4.165160865111607e-06
551.3461523438492,4.783633574101586e-06
551.5461328125992,7.393859202873109e-06
551.7461132813494,1.9920864850683458e-06
551.9460937500994,5.958535292904451e-06
552.1460742188494,6.234522216314445e-06
552.3460546875995,1.1047087654700431e-05
552.5460351563495,4.832304943763119e-06
552.7460156250995,7.515095606196959e-06
552.9459960938495,2.0138453343437035e-06
553.1459765625996,3.202886588246552e-06
553.3459570313496,3.8142571901651473e-06
553.5459375000996,1.5164666561873567e-06
553.7459179688497,4.4005107453892455e-06
553.9458984375997,8.121790646674658e-06
554.1458789063497,8.148552181999468e-06
554.3458593750998,9.442192800868754e-06
554.5458398438499,5.094726353553841e-06
554.7458203125999,4.047730857079893e-06
554.9458007813499,6.686634996217672e-06
555.1457812501,5.84504992173864e-06
555.34576171885,2.5689913150420533e-06
555.5457421876,6.179418406339723e-06
555.74572265635,1.0037655118604481e-05
555.9457031251001,5.563749435765977e-06
556.1456835938501,5.422310957846359e-06
556.3456640626001,3.6320576351966667e-06
556.5456445313501,3.6553653060183598e-06
556.7456250001002,4.218240077598527e-06
556.9456054688502,8.963410066685042e-06
557.1455859376003,1.6571479237490601e-06
557.3455664063504,2.7168503016004746e-06
557.5455468751004,7.447765156162658e-06
557.7455273438504,2.539647015786966e-06
557.9455078126005,7.516139374980156e-06
558.1454882813505,1.1813621282121973e-05
558.3454687501005,7.634686278913868e-06
558.5454492188505,6.776409638673784e-06
558.7454296876006,7.239949532510035e-06
558.9454101563506,4.039151209078647e-06
559.1453906251006,4.61969711932312e-06
559.3453710938506,3.016782659957283e-06
559.5453515626007,7.144601482051209e-06
559.7453320313508,3.0443855211869964e-06
559.9453125001008,4.410417657970392e-06
560.1452929688509,6.720011840956079e-06
560.3452734376009,9.933668238774416e-06
560.5452539063509,8.460391833373755e-06
560.745234375101,6.328988653285814e-06
560.945214843851,6.136870446374324e-06
561.145195312601,5.280336578917438e-06
561.345175781351,9.685456612689909e-06
561.5451562501011,1.0137615560739528e-05
561.7451367188511,6.1353058412374384e-06
561.9451171876011,7.366004125392915e-06
562.1450976563511,5.063189283652346e-06
562.3450781251013,7.468450020922607e-06
562.5450585938513,4.5570029950451194e-06
562.7450390626013,5.453772025562655e-06
562.9450195313514,5.804591887607436e-06
563.1450000001014,8.0882195421674e-06
563.3449804688514,9.04880552048145e-06
563.5449609376014,8.33746497651036e-06
563.7449414063515,9.280535240595146e-06
563.9449218751015,4.774550403721937e-06
564.1449023438515,5.087589902349363e-06
564.3448828126016,8.595598898255238e-06
564.5448632813516,8.315074375978272e-06
564.7448437501016,4.528635243401454e-06
564.9448242188517,1.92266113183198e-06
565.1448046876018,3.681213129834667e-06
565.3447851563518,4.1652240631186305e-06
565.5447656251018,4.950080684057171e-06
565.7447460938519,5.497921344627186e-07
565.9447265626019,7.519835370842514e-06
566.1447070313519,3.0261959134898356e-06
566.3446875001019,6.290335386398449e-06
566.544667968852,3.2172391616728994e-06
566.744648437602,2.479585852308474e-06
566.944628906352,3.834088839171773e-06
567.144609375102,6.960768382632009e-06
567.3445898438521,3.4047975172158136e-06
567.5445703126022,4.619432087157765e-06
567.7445507813522,3.7263948420777205e-06
567.9445312501023,3.0291809292117603e-06
568.1445117188523,5.231191726318149e-06
568.3444921876023,7.497829855063589e-06
568.5444726563524,5.803717989712494e-06
568.7444531251024,4.384579940998627e-06
568.9444335938524,5.302378670380101e-06
569.1444140626024,5.325047923635248e-06
569.3443945313525,4.5481087006802195e-06
569.5443750001025,4.301461955820539e-06
569.7443554688525,3.29839049233479e-06
569.9443359376025,9.315464857271769e-06
570.1443164063527,2.5176850559293393e-06
570.3442968751027,6.578054777214171e-06
570.5442773438527,5.943967381945549e-06
570.7442578126028,1.3589311900287446e-06
570.9442382813528,6.1814909049367795e-06
571.1442187501028,4.344256861838425e-06
571.3441992188529,9.368397874143135e-06
571.5441796876029,2.6174085465913743e-06
571.7441601563529,3.5655891933847057e-06
571.9441406251029,1.408649563219362e-06
572.144121093853,1.1218034846003145e-05
572.344101562603,6.226711526033983e-06
572.544082031353,2.384312726520686e-06
572.7440625001032,4.721490920229562e-06
572.9440429688532,3.0935330620316176e-06
573.1440234376032,2.042634909913182e-06
573.3440039063532,4.71053997562969e-06
573.5439843751033,4.345833556945658e-06
573.7439648438533,5.225122087640329e-06
573.9439453126033,6.96648885956311e-06
574.1439257813533,2.2553172036546756e-06
574.3439062501034,3.280617738578187e-06
574.5438867188534,2.0373376060554415e-06
574.7438671876034,2.3851322045416104e-06
574.9438476563535,2.291911308395532e-06
575.1438281251035,6.6434419330948e-06
575.3438085938536,1.627114282475861e-06
575.5437890626037,5.681043108148115e-06
575.7437695313537,6.1500226828587266e-06
575.9437500001037,5.1368267169985235e-06
576.1437304688537,3.7255661592672814e-06
576.3437109376038,4.74951900840167e-06
576.5436914063538,2.267848202048021e-06
576.7436718751038,5.458820263725111e-06
576.9436523438538,4.930118264133609e-06
577.1436328126039,1.6881332193576515e-06
577.3436132813539,3.5102661301097825e-06
577.5435937501039,4.518441386076012e-06
577.743574218854,2.4463681529627267e-06
577.9435546876041,4.128629094611534e-06
578.1435351563541,5.472259333842967e-06
578.3435156251041,3.3798178169073223e-06
578.5434960938542,5.619811673704014e-06
578.7434765626042,3.514066886555082e-06
578.9434570313542,1.3722818932473618e-06
579.1434375001043,1.3891799344701296e-06
579.3434179688543,5.934800972586132e-06
579.5433984376043,4.969339161530563e-06
579.7433789063543,3.7111068099653443e-06
579.9433593751044,6.832570610187333e-06
580.1433398438544,4.148428652674147e-06
580.3433203126044,3.1800891856244906e-06
580.5433007813546,4.0460128574980345e-06
580.7432812501046,5.951578303523422e-06
580.9432617188546,2.955379394778506e-06
581.1432421876046,3.548139833975024e-06
581.3432226563547,2.132580453527291e-06
581.5432031251047,2.355131696988883e-06
581.7431835938547,5.172997209938262e-06
581.9431640626048,2.875577764804537e-06
582.1431445313548,4.447768665080729e-06
582.3431250001048,6.6858151295448494e-06
582.5431054688548,4.637398910000402e-06
582.7430859376049,4.835774752649023e-06
582.9430664063549,5.458141297392433e-06
583.143046875105,4.4473187538308024e-07
583.343027343855,1.1651982562740921e-06
583.5430078126051,4.039580359027468e-06
583.7429882813551,2.938128596460122e-06
583.9429687501051,5.004291948584305e-06
584.1429492188552,2.844974844859453e-06
584.3429296876052,2.7849308798207344e-06
584.5429101563552,3.026716064147623e-06
584.7428906251052,4.6659160103833255e-06
584.9428710938553,3.222936420682676e-06
585.1428515626053,4.2176252456974716e-06
585.3428320313553,4.82980230124447e-06
585.5428125001054,2.266641576663071e-06
585.7427929688555,2.509758530623886e-06
585.9427734376055,1.3476050354749705e-06
586.1427539063556,2.7411812168146405e-06
586.3427343751056,5.157507922052205e-06
586.5427148438556,2.486481845146259e-06
586.7426953126056,3.935176186943821e-06
586.9426757813557,4.766412220312711e-06
587.1426562501057,4.979055748889903e-06
587.3426367188557,4.688519482014222e-06
587.5426171876057,3.3681334544341954e-06
587.7425976563558,5.7104100017052e-06
587.9425781251058,2.8172130575484726e-06
588.1425585938558,4.40134826880128e-06
588.342539062606,3.5810889768069252e-06
588.542519531356,4.353648790773942e-06
588.742500000106,3.2041807209668094e-06
588.942480468856,2.1185185991627747e-06
589.1424609376061,3.595543033855964e-06
589.3424414063561,2.9813476224746615e-06
589.5424218751061,2.325946721868444e-06
589.7424023438562,4.867257562575203e-06
589.9423828126062,4.930793587334238e-06
590.1423632813562,4.8224951056002214e-06
590.3423437501062,3.217442406353116e-06
590.5423242188563,3.6385729770477827e-06
590.7423046876063,3.375760625447254e-06
590.9422851563564,4.751115695813565e-06
591.1422656251065,4.416298556930261e-06
591.3422460938565,4.957583890562978e-06
591.5422265626065,3.4271217535843043e-06
591.7422070313565,5.524595845066325e-06
591.9421875001066,4.843208756354438e-06
592.1421679688566,4.174313242708866e-06
