Time (s),Filtered EMG Relaxed
0.0,1.5957464349411976e-05
0.199980468750036,0.00010041695654837889
0.399960937500072,7.797611356859229e-05
0.5999414062501081,7.164485394164136e-05
0.799921875000144,6.879020000136227e-05
0.99990234375018,6.765215416326655e-05
1.1998828125002161,6.827447209705687e-05
1.399863281250252,6.598395698669007e-05
1.599843750000288,6.387156801923847e-05
1.799824218750324,6.982575381301615e-05
1.99980468750036,6.776516052724774e-05
2.199785156250396,6.680907396363391e-05
2.3997656250004322,7.764039994282449e-05
2.599746093750468,5.908225673928662e-05
2.799726562500504,6.203029317278869e-05
2.99970703125054,6.561795593494664e-05
3.199687500000576,6.39359337184387e-05
3.399667968750612,7.563001041720442e-05
3.599648437500648,8.942414735316187e-05
3.799628906250684,7.563009293457026e-05
3.99960937500072,5.990439697329968e-05
4.199589843750756,6.071728952778596e-05
4.399570312500792,2.727073989511229e-05
4.599550781250828,8.202198876890697e-05
4.7995312500008644,7.619562974746914e-05
4.9995117187509,0.00010696362586240833
5.199492187500936,8.328893112947716e-05
5.399472656250972,0.00010109446606070991
5.599453125001008,0.00012013446982184797
5.799433593751044,5.893072192680941e-05
5.99941406250108,4.7554138756466704e-05
6.199394531251116,5.7544809871911263e-05
6.399375000001152,6.123921244341208e-05
6.599355468751188,0.00017174860167822625
6.799335937501224,5.8607006674853625e-05
6.99931640625126,0.00012504192215686015
7.199296875001296,0.00016520125330234385
7.399277343751332,6.794084453960358e-05
7.599257812501368,0.0001252281017161937
7.799238281251404,0.0002080341883113822
7.99921875000144,0.0001244340585163986
8.199199218751476,7.618805869347274e-05
8.399179687501512,0.0002071998188189892
8.599160156251548,0.00014246227732884657
8.799140625001584,6.77364359926069e-05
8.99912109375162,9.401438044944185e-05
9.199101562501657,0.00013019330603775063
9.399082031251693,0.00017184204185999752
9.599062500001729,0.00010112867456551435
9.799042968751763,0.00010552741172292235
9.9990234375018,0.00016423601329598766
10.199003906251836,9.540885257472724e-05
10.398984375001872,0.00013413300681843008
10.598964843751908,0.00020606452983148172
10.798945312501944,0.00011847271273718226
10.99892578125198,0.00010397032672087566
11.198906250002016,0.00018674652731551743
11.398886718752053,0.00017329497754349108
11.598867187502089,8.389952283450398e-05
11.798847656252123,8.808633088504327e-05
11.99882812500216,6.449737633287306e-05
12.198808593752196,9.567109502066363e-05
12.398789062502232,0.00023811112352244571
12.598769531252268,0.0001470506346911975
12.798750000002304,0.0001688079650697096
12.99873046875234,0.00030424297221925446
13.198710937502376,0.0001960392327253811
13.398691406252413,0.00015264354322602698
13.598671875002449,0.0002967072059861075
13.798652343752485,6.006213890024085e-05
13.99863281250252,0.00021995746083266931
14.198613281252555,0.0001415680933728111
14.398593750002592,0.00019021673843481915
14.598574218752628,5.5018092404663884e-05
14.798554687502664,0.0003565044665543005
14.9985351562527,0.00011051061568164171
15.198515625002736,0.00032508841133087996
15.398496093752772,0.0002103360860707297
15.598476562502809,0.00018976269867436836
15.798457031252845,7.556503588888133e-05
15.99843750000288,0.0005239761142504482
16.198417968752917,4.5836758891574364e-05
16.39839843750295,0.00018625872021860645
16.59837890625299,8.92862097238273e-05
16.798359375003024,0.0001790787591892971
16.99833984375306,0.00032571243092993255
17.198320312503096,2.0191684785534088e-05
17.39830078125313,0.00029359640946991633
17.59828125000317,0.0002573676084946453
17.798261718753203,0.0001203305319270975
17.99824218750324,0.0001111651729577089
18.198222656253275,0.00034525035261170005
18.398203125003313,0.00010958103838290442
18.598183593753348,0.0002578966260040867
18.798164062503385,6.502632720661126e-05
18.99814453125342,0.00034219596320198063
19.198125000003458,0.0001337029738237484
19.398105468753492,0.00012382075854646467
19.598085937503527,0.0002198163124942437
19.798066406253565,0.0001466311333040341
19.9980468750036,0.00011911647616061761
20.198027343753637,0.0002264669413285687
20.39800781250367,0.0002245110963181489
20.59798828125371,0.00011955526022637905
20.797968750003744,7.483971576386663e-05
20.99794921875378,9.411370209948185e-05
21.197929687503816,0.00036636900101806786
21.39791015625385,0.00020246745116179484
21.59789062500389,1.6102886070530803e-05
21.797871093753923,0.0001885080173231671
21.99785156250396,0.00019582334368871586
22.197832031253995,6.442549614898074e-05
22.397812500004033,0.00013307608956141366
22.597792968754067,0.000274670310367834
22.797773437504105,0.00024113960224317273
22.99775390625414,0.00034141130240504243
23.197734375004178,0.00035626770721395787
23.397714843754212,0.0002111527820420497
23.597695312504246,0.00014412990746117335
23.797675781254284,0.00027201680831835873
23.99765625000432,0.00019235010560736868
24.197636718754357,0.00023268672052912894
24.39761718750439,0.00028131993336906556
24.59759765625443,0.00010999811408355151
24.797578125004463,0.00018723964077660163
24.9975585937545,0.00013062494591126634
25.197539062504536,0.0001393987890233747
25.397519531254574,0.00021157024840488825
25.597500000004608,0.0003306326212636262
25.797480468754642,0.00019837286935974358
25.99746093750468,0.00013377301580284033
26.197441406254715,0.0004537981693607642
26.397421875004753,0.00025092657746603506
26.597402343754787,0.00014610283996947825
26.797382812504825,5.289772346176068e-05
26.99736328125486,0.0001137032337859574
27.197343750004897,0.00030704955764501387
27.39732421875493,0.0002823508401965725
27.59730468750497,4.946410447612174e-05
27.797285156255004,0.00027800536271993217
27.99726562500504,0.00014985607872592823
28.197246093755076,0.00020475972775835664
28.39722656250511,0.00012656497480560434
28.59720703125515,0.00015082490245212158
28.797187500005183,0.0002378702876881355
28.99716796875522,0.00011432002480990127
29.197148437505255,0.00019400992556615484
29.397128906255293,0.0001242848418367899
29.597109375005328,0.00032168699109749277
29.797089843755366,0.00012421225842605707
29.9970703125054,8.84485733065551e-05
30.197050781255435,0.0003511174270807938
30.397031250005472,0.00018165217992256293
30.597011718755507,0.0001939857619551997
30.796992187505545,0.0004158110883656089
30.99697265625558,0.0001956496358049407
31.196953125005617,0.00011011999393858254
31.39693359375565,0.0001912165452079345
31.59691406250569,0.00016614638617070497
31.796894531255724,0.00026693234235551785
31.99687500000576,0.00018843419313564934
32.19685546875579,0.00011693424516567468
32.396835937505834,5.519921020570733e-05
32.59681640625587,9.970938377000002e-05
32.7967968750059,6.23369523688894e-05
32.99677734375594,0.00020109949347572593
33.19675781250598,0.00023922778600361062
33.39673828125601,8.024893188713294e-05
33.59671875000605,0.0003527344836922479
33.79669921875608,4.25929856363932e-05
33.99667968750612,4.095850687667698e-05
34.19666015625616,3.696040496278437e-05
34.39664062500619,0.00029650448158935835
34.59662109375623,0.00020877415498274507
34.79660156250626,9.602210847817652e-05
34.9965820312563,4.1160451474085485e-05
35.19656250000634,0.00021954771648420967
35.39654296875637,7.3289147525097e-06
35.596523437506406,0.00024256955406985314
35.79650390625645,0.00031167596316806063
35.99648437500648,0.00023666531449416015
36.196464843756516,0.00012249508375600116
36.39644531250655,0.00029741561536169247
36.596425781256585,4.784811205831078e-05
36.796406250006626,7.52609896883526e-05
36.99638671875666,0.00038122126692355943
37.196367187506695,8.048988498372535e-05
37.39634765625673,0.0002714153458038367
37.59632812500677,0.00046254985794491306
37.796308593756805,0.00013502231877922608
37.99628906250684,0.0003125758328747304
38.196269531256874,0.00011216450725956333
38.396250000006916,0.00033099405604671836
38.59623046875695,0.00026403164632875773
38.796210937506984,0.00020252190916867914
38.99619140625702,0.00013707305045922302
39.19617187500705,0.00014456797528674144
39.396152343757095,0.0001952220575462385
39.59613281250713,0.0001806617414891376
39.79611328125716,0.00026081468101342583
39.9960937500072,0.00024258403210607158
40.19607421875724,5.641945483867597e-05
40.396054687507274,0.00023841879563856646
40.59603515625731,0.00012391965414536437
40.79601562500734,0.0003159472933000826
40.99599609375738,0.00012884639531774355
41.19597656250742,0.00016385915365790937
41.39595703125745,0.00021606516294074161
41.59593750000749,0.0004018208678187122
41.79591796875752,0.00015580676497725277
41.99589843750756,0.0003108553132944387
42.1958789062576,0.00018605323608992616
42.39585937500763,0.0001036977043006595
42.595839843757666,0.0001634868124042222
42.7958203125077,0.00029458933511774144
42.99580078125774,0.00026328811010745785
43.19578125000778,0.0002790229200188828
43.39576171875781,0.0002600410456783262
43.595742187507845,0.00038458229575834366
43.79572265625789,0.0002772423962646166
43.99570312500792,0.00025895640110176033
44.195683593757956,0.00035848613778362537
44.39566406250799,0.00020479873028052587
44.59564453125803,0.00012656613291941134
44.795625000008066,0.00025555516696798374
44.9956054687581,0.00015648813753260906
45.195585937508135,0.00021267292523140832
45.39556640625817,0.00037799212282669663
45.59554687500821,0.00035703992873291584
45.795527343758245,0.0004941464150515368
45.99550781250828,0.000343031671954366
46.195488281258314,0.0001411757935438867
46.395468750008355,0.00021373782865409587
46.59544921875839,0.0002045034307135837
46.795429687508424,0.0006486153480984554
46.99541015625846,0.00013385900127893421
47.19539062500849,0.0002890092823018629
47.395371093758534,0.0003783541172619003
47.59535156250857,6.0043908087955615e-05
47.7953320312586,0.0002800864976875307
47.99531250000864,0.000238073392388206
48.19529296875868,0.0003029778473636247
48.39527343750871,0.00019144315118139023
48.59525390625875,0.00031839725448366585
48.79523437500878,0.00022634890250417536
48.99521484375882,0.0002213184988778494
49.19519531250886,0.00029550440139942117
49.39517578125889,0.00039304042410744864
49.59515625000893,0.00042075838253554146
49.79513671875896,0.0001173668795122151
49.995117187509,0.000240993253487237
50.19509765625904,0.00019743088446599113
50.39507812500907,0.0002441983621006184
50.595058593759106,0.00020192712395339965
50.79503906250915,0.00041259174981701275
50.99501953125918,0.0005095302307313511
51.195000000009216,0.0004013851712611304
51.39498046875925,0.00038215479765822165
51.594960937509285,9.243233253956182e-05
51.794941406259326,0.0002884061152988294
51.99492187500936,0.00044656207612590285
52.194902343759395,0.0005531836044902798
52.39488281250943,0.00037156091744832873
52.59486328125947,0.00022290102379477793
52.794843750009505,0.0003417993182050072
52.99482421875954,0.0003320447544868739
53.194804687509574,0.0005282273119561786
53.39478515625961,0.00042552573992904734
53.59476562500965,0.0003448642121941838
53.794746093759684,0.0003266112431700921
53.99472656250972,0.00035527180784237865
54.19470703125975,0.0006355435563047219
54.394687500009795,0.0006290792288945282
54.59466796875983,0.0005306117230054366
54.79464843750986,0.0006321823847631755
54.9946289062599,0.0005918453019608878
55.19460937500994,0.0005847467294939814
55.394589843759974,0.0007822382150570414
55.59457031251001,0.0005491387073052864
55.79455078126004,0.0007201444950016506
55.99453125001008,0.0006548316046213159
56.19451171876012,0.0006412130470394824
56.39449218751015,0.0009347416944884354
56.59447265626019,0.0008976017186561402
56.79445312501022,0.0007572983961045852
56.99443359376026,0.0006713556959212319
57.1944140625103,0.0006946790972439832
57.39439453126033,0.0002918950515796132
57.594375000010366,0.0001894774497566941
57.7943554687604,8.309566757668573e-05
57.99433593751044,4.892008793324118e-05
58.19431640626048,2.1735683679462708e-05
58.39429687501051,7.800525209408385e-06
58.594277343760545,2.1958980133255706e-06
58.79425781251059,1.792415815985396e-06
58.99423828126062,3.2506520177485196e-06
59.194218750010656,4.360070277356097e-06
59.39419921876069,5.2999153102919914e-06
59.59417968751073,6.196319788519322e-06
59.794160156260766,7.099018138537389e-06
59.9941406250108,8.026195709180552e-06
60.194121093760835,8.99325968390297e-06
60.39410156251087,1.0016880296893269e-05
60.59408203126091,1.1107338844862576e-05
60.794062500010945,1.2251535693201703e-05
60.99404296876098,1.3283480923019788e-05
61.194023437511014,1.3749547576279465e-05
61.394003906261055,1.2893795525304655e-05
61.59398437501109,1.0982129361165933e-05
61.793964843761124,1.9119087836624802e-05
61.99394531251116,4.462221229398531e-05
62.19392578126119,0.00010919062993649961
62.393906250011234,0.00019663633605028678
62.59388671876127,0.0002991198102442978
62.7938671875113,0.0005498270921631195
62.99384765626134,0.0004490817680909423
63.19382812501138,0.0005122770002446604
63.39380859376141,0.0005942190381328549
63.59378906251145,0.0007392664960798288
63.79376953126148,0.0002934171587226672
63.99375000001152,0.0005937297791456428
64.19373046876156,0.0006526861929688363
64.39371093751159,0.00027422332756556395
64.59369140626163,0.0004638583612135475
64.79367187501167,0.0004809850428472109
64.9936523437617,0.0004469245749197379
65.19363281251174,0.000397178101325625
65.39361328126178,0.0005282694502822394
65.5935937500118,0.0005576397154427925
65.79357421876185,0.00031170227742482147
65.99355468751187,0.00018132047589895312
66.19353515626192,0.00034836372328165036
66.39351562501196,0.00037197991995822753
66.59349609376198,0.00045087503763661246
66.79347656251203,0.00035241666776967537
66.99345703126205,0.00022751324200845184
67.1934375000121,0.00020285270891524834
67.39341796876214,0.0003015350580063494
67.59339843751216,0.0004893916699418333
67.7933789062622,0.00022228392644739055
67.99335937501225,0.00032775067634700555
68.19333984376227,0.00029327268923672506
68.39332031251232,0.0005638022890733875
68.59330078126234,0.0003184667500507766
68.79328125001238,0.00018767779304034674
68.99326171876243,0.00029352938802898573
69.19324218751245,0.00016519079123753573
69.3932226562625,0.0003735173113045751
69.59320312501252,0.00026209578659035975
69.79318359376256,0.0003651977047298511
69.9931640625126,0.00048583174929961795
70.19314453126263,0.00019326874516583861
70.39312500001267,0.00016584273248095897
70.5931054687627,0.0004229729403255527
70.79308593751274,0.00026913902933968796
70.99306640626278,0.0001289413074145966
71.19304687501281,0.00017704203000302375
71.39302734376285,0.00040226918142852245
71.5930078125129,0.00023616199975756325
71.79298828126292,0.0001921027254252709
71.99296875001296,0.00011829987907352673
72.19294921876299,0.00022292222055674815
72.39292968751303,0.00021603863480353756
72.59291015626307,0.000158221116229706
72.7928906250131,0.0002542753403897083
72.99287109376314,0.0002405319551658227
73.19285156251317,0.0002889553597712401
73.39283203126321,0.00023925425510666566
73.59281250001325,0.0001815962890927915
73.79279296876328,0.00016567293893863253
73.99277343751332,0.00022707611282816567
74.19275390626336,0.00010576724869703365
74.39273437501339,0.00031355267870544545
74.59271484376343,0.00019846763714363123
74.79269531251346,0.000227303479792799
74.9926757812635,0.0004425354398121398
75.19265625001354,0.00018632866504618724
75.39263671876357,0.0003269917595402793
75.59261718751361,0.00010267852828243487
75.79259765626364,0.00032670837798862476
75.99257812501368,0.00018269772960160033
76.19255859376372,7.821246926956445e-05
76.39253906251375,0.00030648005061412637
76.59251953126379,0.0002743999806644785
76.79250000001383,7.848006299034465e-05
76.99248046876386,0.00027377968170267454
77.1924609375139,6.360991161214164e-05
77.39244140626393,0.0003733140788828743
77.59242187501397,0.00039557804554834456
77.79240234376401,0.00011475647778490456
77.99238281251404,6.289927065835368e-05
78.19236328126408,0.0003055180940092407
78.3923437500141,6.39953335652635e-05
78.59232421876415,0.00017303050551819465
78.79230468751419,0.00012889516100946796
78.99228515626422,0.00020810158872922583
79.19226562501426,0.0001596642698508552
79.39224609376429,6.406538013311069e-05
79.59222656251433,0.0004336480547185522
79.79220703126437,0.0002923544438605447
79.9921875000144,8.979172264768241e-05
80.19216796876444,0.00035293709772394135
80.39214843751448,0.00015157991925027312
80.5921289062645,0.0002867526302601404
80.79210937501455,0.00036895591060864146
80.99208984376457,4.005867105199857e-05
81.19207031251462,9.30447005118366e-05
81.39205078126466,0.00017508613233750884
81.59203125001468,0.00012030263240332669
81.79201171876473,0.000175878705724879
81.99199218751475,0.0001249220798176238
82.1919726562648,0.00015324453514034228
82.39195312501484,0.00045017534105167413
82.59193359376486,0.0003071465287381325
82.7919140625149,0.00016273598008789903
82.99189453126495,0.0002428202331281236
83.19187500001497,7.750491157620673e-06
83.39185546876502,0.00011784406828917673
83.59183593751504,0.00018694178898150438
83.79181640626508,0.00011979538101343398
83.99179687501513,0.00023174831188223495
84.19177734376515,0.00010684786088622739
84.3917578125152,0.00020127440042585297
84.59173828126522,0.00012133819748282688
84.79171875001526,5.4480652575245354e-05
84.9916992187653,0.00036080800136020796
85.19167968751533,0.00015777422781174973
85.39166015626537,0.00022981024939527393
85.5916406250154,0.00016708620149849074
85.79162109376544,0.00026039672135529487
85.99160156251548,0.00018304565189150376
86.19158203126551,0.0001390897247012957
86.39156250001555,8.93732109439617e-05
86.5915429687656,9.223496712414657e-05
86.79152343751562,0.000279427885620113
86.99150390626566,4.1102646373908364e-05
87.19148437501569,0.00018364354758628728
87.39146484376573,5.6437032984091765e-05
87.59144531251577,9.689095099901173e-05
87.7914257812658,0.00014767285872016307
87.99140625001584,0.0003701928288442261
88.19138671876587,0.00018285928936138604
88.39136718751591,0.00020598712928038146
88.59134765626595,7.621333659779281e-05
88.79132812501598,0.0001407355564764606
88.99130859376602,0.00023555886734817567
89.19128906251606,0.00017776780524620515
89.39126953126609,1.384943382096948e-05
89.59125000001613,0.00012572800435312447
89.79123046876616,5.168875109310533e-06
89.9912109375162,0.0004204141799113676
90.19119140626624,0.00010546232351551536
90.39117187501627,0.0001564620381569787
90.59115234376631,0.0001325706303022428
90.79113281251634,0.00010207840348395509
90.99111328126638,0.00025007938627378965
91.19109375001642,0.00027166664919515157
91.39107421876645,0.0002503711854470098
91.59105468751649,0.0002214676116460361
91.79103515626652,1.846964634761102e-05
91.99101562501656,0.00026652607781859695
92.1909960937666,0.00021740981504502293
92.39097656251663,0.00024817008551890704
92.59095703126667,0.00021339841081501797
92.79093750001671,0.00012172321666038892
92.99091796876674,0.00026002034906651844
93.19089843751678,6.077254546490012e-05
93.3908789062668,0.00020850390351586485
93.59085937501685,0.0002394199990976387
93.79083984376689,0.00014938789936904168
93.99082031251692,0.00018909531989188465
94.19080078126696,0.000187234763551965
94.39078125001699,0.00011829490262174078
94.59076171876703,0.0002349800914542271
94.79074218751707,0.00028672961253259306
94.9907226562671,5.627399667708886e-05
95.19070312501714,9.935157116988606e-05
95.39068359376718,0.0002721486639228455
95.5906640625172,0.00012811922087433222
95.79064453126725,2.0981329841387792e-05
95.99062500001727,0.00018953450812085737
96.19060546876732,0.00019979311136255362
96.39058593751736,0.00017382863562536265
96.59056640626738,9.438817274115777e-05
96.79054687501743,0.00020149488211251962
96.99052734376745,0.00011323271226667948
97.1905078125175,5.2933402013344465e-05
97.39048828126754,0.00016025815488451188
97.59046875001756,0.00015988608603547535
97.7904492187676,0.00010167123615682291
97.99042968751765,6.785865758876517e-05
98.19041015626767,0.00012425461983650658
98.39039062501772,0.00013350778440943635
98.59037109376774,7.901440756087939e-05
98.79035156251778,0.00018954253071654337
98.99033203126783,9.252841458888984e-05
99.19031250001785,0.00015652354658308965
99.3902929687679,0.00013606723640622752
99.59027343751792,4.852151945079594e-05
99.79025390626796,2.572664714911151e-05
99.990234375018,0.00019185966401672112
100.19021484376803,0.00018939351367544728
100.39019531251807,0.000249628198809301
100.5901757812681,0.0001590631456737899
100.79015625001814,5.498143331548905e-05
100.99013671876818,0.0001914842102029744
101.19011718751821,0.00022616971320657336
101.39009765626825,6.598904957738463e-05
101.5900781250183,0.00043804059793280776
101.79005859376832,4.0748059144966055e-05
101.99003906251836,3.770883546622431e-05
102.19001953126839,0.0002370380983076581
102.39000000001843,0.00010042665429233922
102.58998046876847,4.9653214355306644e-05
102.7899609375185,4.1717916273412355e-05
102.98994140626854,0.00019791301930715562
103.18992187501857,0.00011826799376118834
103.38990234376861,0.0001551111379158661
103.58988281251865,7.957382518664538e-05
103.78986328126868,0.00010073067901872537
103.98984375001872,0.0001362768913532508
104.18982421876876,0.00010773926785051588
104.38980468751879,7.416782226687133e-05
104.58978515626883,0.00013246939277431998
104.78976562501886,6.31931091555405e-05
104.9897460937689,0.00015764110568523913
105.18972656251894,6.883860231198476e-05
105.38970703126897,0.00018518653047643998
105.58968750001901,0.00012022737309215824
105.78966796876904,0.00023598815823091323
105.98964843751908,0.00014115661868849806
106.18962890626912,0.0002130227304373515
106.38960937501915,0.00010670046199504542
106.58958984376919,0.00014657893787940063
106.78957031251922,0.00033749351020910155
106.98955078126926,0.00015968073034699213
107.1895312500193,9.115582206892472e-05
107.38951171876933,0.00018193746858022062
107.58949218751937,0.00010755929389035977
107.78947265626941,0.00013156374603407684
107.98945312501944,1.0901161781066795e-05
108.18943359376948,0.0002454891283518481
108.3894140625195,9.524129927330436e-05
108.58939453126955,0.00027791973118440546
108.78937500001959,0.0002771692606299175
108.98935546876962,0.00017606868462639205
109.18933593751966,0.00011446002060703637
109.38931640626969,0.00025154511090428607
109.58929687501973,0.0001742966260347806
109.78927734376977,0.0002538040508554465
109.9892578125198,0.00025755227873768666
110.18923828126984,0.00014562144975415917
110.38921875001988,0.00021754209748592473
110.5891992187699,8.119733108157427e-05
110.78917968751995,0.00021504371351151077
110.98916015626997,3.474895945765191e-05
111.18914062502002,0.0001114182765597913
111.38912109377006,0.00018989809893668657
111.58910156252009,0.00010645047323760652
111.78908203127013,3.2984480234840604e-05
111.98906250002015,6.902504068241231e-05
112.1890429687702,0.00025807683920592506
112.38902343752024,0.000173424864719912
112.58900390627026,0.0002301768850622232
112.7889843750203,9.63176124483389e-05
112.98896484377035,0.00034752185299976213
113.18894531252037,0.00023767898450007802
113.38892578127042,2.699346771535433e-05
113.58890625002044,0.00018519510498106844
113.78888671877048,9.360119562904093e-05
113.98886718752053,7.331900634878532e-05
114.18884765627055,0.00014997478657762794
114.3888281250206,5.327635387106551e-05
114.58880859377062,6.585769096148517e-05
114.78878906252066,0.00014663370302511812
114.9887695312707,0.00034198333950487774
115.18875000002073,0.0001858853420036781
115.38873046877077,0.00025190696879937117
115.5887109375208,3.742113574289421e-05
115.78869140627084,0.00028679574395012894
115.98867187502088,0.00016027572383665284
116.18865234377091,0.0001668095122030704
116.38863281252095,0.00020980617538868745
116.588613281271,2.8265147194447956e-05
116.78859375002102,6.976105004684938e-05
116.98857421877106,0.00010305746227864952
117.18855468752109,0.00029726560330913627
117.38853515627113,9.618588674771105e-05
117.58851562502117,7.441862365886154e-05
117.7884960937712,0.00017335947979243743
117.98847656252124,8.067213750244059e-05
118.18845703127127,0.00014584916757522456
118.38843750002131,0.00014595505256344936
118.58841796877135,0.0001701376615487005
118.78839843752138,0.00019547415143796713
118.98837890627142,0.0001483274122042736
119.18835937502146,0.0002092192814822455
119.38833984377149,0.00012635162072107642
119.58832031252153,0.0001239610390673572
119.78830078127156,6.903951443533186e-05
119.9882812500216,8.791368310269458e-05
120.18826171877164,0.00011641382409902985
120.38824218752167,0.00031703521069022196
120.58822265627171,0.0001945875398054399
120.78820312502174,0.00019931604055542547
120.98818359377178,8.753778935409332e-05
121.18816406252182,0.0002611937381860141
121.38814453127185,0.00023362009365953093
121.58812500002189,0.00014283621272975967
121.78810546877192,8.731502255326744e-05
121.98808593752196,0.0002448987260738411
122.188066406272,0.00016026093205139295
122.38804687502203,0.00014455484996418999
122.58802734377207,8.700114249059574e-05
122.78800781252211,0.00010543408751424412
122.98798828127214,2.7262134636002065e-05
123.18796875002218,0.00023267423784712187
123.3879492187722,8.340931038366463e-05
123.58792968752225,5.167896362109499e-05
123.78791015627229,0.00020164591084115356
123.98789062502232,0.00010016609494835518
124.18787109377236,0.00037876818038228986
124.38785156252239,0.00018938993950520872
124.58783203127243,5.382743918716718e-05
124.78781250002247,0.0002601082470392549
124.9877929687725,0.0001937930920171351
125.18777343752254,0.00012050647991648375
125.38775390627258,0.00018952043029905947
125.5877343750226,2.7328362859049828e-05
125.78771484377265,0.0002572156554450418
125.98769531252267,6.880814838403891e-05
126.18767578127272,0.0002964151405824323
126.38765625002276,0.00015096664537682294
126.58763671877279,0.00013848377535323911
126.78761718752283,0.0003159848673480148
126.98759765627285,0.00019013763445981942
127.1875781250229,0.00014970029107539172
127.38755859377294,5.887381443483174e-05
127.58753906252296,0.00023449597372307915
127.787519531273,0.00012933852133419587
127.98750000002303,0.00022499759288711584
128.1874804687731,0.0001423412732097569
128.38746093752312,0.00024912347416102394
128.58744140627314,0.0002271570568406616
128.78742187502317,8.96047832236844e-05
128.98740234377323,6.315374311913186e-05
129.18738281252325,0.00011251954904738388
129.38736328127328,2.933270260765626e-05
129.58734375002334,0.0001411875168773186
129.78732421877336,0.00020005472642815937
129.9873046875234,0.00021794568932069735
130.18728515627345,8.700712464917097e-05
130.38726562502347,0.00012564121833504577
130.5872460937735,0.00014678411947879994
130.78722656252356,0.00018495777737787618
130.98720703127358,0.00020105898442053147
131.1871875000236,0.00011675872756355596
131.38716796877364,0.00010923364125222371
131.5871484375237,0.00018901263029802667
131.78712890627372,0.00030348386711191104
131.98710937502375,0.00024167618113557894
132.1870898437738,7.22225322477221e-05
132.38707031252383,0.0001523129765110874
132.58705078127386,0.00011011574521492849
132.78703125002392,0.0003274572080573127
132.98701171877394,0.00012008128520302132
133.18699218752397,0.00024358910210856593
133.38697265627403,0.0001395229363532305
133.58695312502405,7.156870940506898e-05
133.78693359377408,9.985975365148382e-05
133.9869140625241,0.00010079440519176902
134.18689453127416,0.00024456106229137574
134.3868750000242,5.5281608953663057e-05
134.58685546877422,0.00020549891237540052
134.78683593752427,0.00012561172877132953
134.9868164062743,0.00025342929870439634
135.18679687502433,0.00020725261563692553
135.38677734377438,9.741073343859579e-05
135.5867578125244,0.00015545748006641987
135.78673828127444,0.00026106237240279063
135.9867187500245,0.0002468392451037863
136.18669921877452,0.0001169304509206429
136.38667968752455,8.311254640105672e-05
136.58666015627458,9.173418172897982e-05
136.78664062502463,6.241188944924034e-05
136.98662109377466,3.123689708391596e-05
137.1866015625247,8.288327271760128e-05
137.38658203127474,9.70251537350394e-05
137.58656250002477,8.050355708270302e-05
137.7865429687748,0.0001926216514262458
137.98652343752485,0.00015207933506703272
138.18650390627488,7.106133367894755e-05
138.3864843750249,0.00014264305368997193
138.58646484377496,0.00015172939147375418
138.786445312525,0.000259143587198107
138.98642578127502,0.00022982792724023316
139.18640625002504,6.559260732382219e-05
139.3863867187751,7.670345398611055e-05
139.58636718752513,0.0001560696717488161
139.78634765627515,4.022119299527035e-05
139.9863281250252,0.0001015307613040638
140.18630859377524,3.379272474125679e-05
140.38628906252526,5.1468921246554976e-05
140.58626953127532,0.0002015556659555348
140.78625000002535,0.00011854886616254558
140.98623046877537,3.0221325896301713e-05
141.1862109375254,0.00011698074059273295
141.38619140627546,0.00024166469287159598
141.58617187502549,0.00013629796398574159
141.7861523437755,0.0002576415564665544
141.98613281252557,0.00011541266661745613
142.1861132812756,0.00017512144972662072
142.38609375002562,0.00019084990242450447
142.58607421877568,0.00020170774114435853
142.7860546875257,0.00011686983607853176
142.98603515627573,0.00018970397552334358
143.1860156250258,0.00016329584668488444
143.38599609377582,3.987112103379147e-05
143.58597656252584,0.0003376904481498288
143.78595703127587,0.00011287681164120693
143.98593750002593,0.00010812134021780842
144.18591796877595,0.0001952406043097888
144.38589843752598,7.639021945791322e-05
144.58587890627604,0.00014747419034829667
144.78585937502606,0.00012681689420480786
144.9858398437761,0.0002458003547259556
145.18582031252615,0.0003069087698322519
145.38580078127617,0.00022515156722184134
145.5857812500262,0.0001366132555266485
145.78576171877626,0.0002740049644312454
145.98574218752628,5.0662642737203545e-06
146.1857226562763,7.356086687319654e-05
146.38570312502634,8.486712015901686e-05
146.5856835937764,0.00029140193429693544
146.78566406252642,0.00016087413169601675
146.98564453127645,5.116859692731615e-05
147.1856250000265,0.00010830054857738671
147.38560546877653,4.655606400660311e-05
147.58558593752656,0.00011583848695791919
147.78556640627662,0.00016860760026558863
147.98554687502664,8.55725923811316e-05
148.18552734377667,7.774384732442798e-05
148.38550781252673,0.00020381610907764362
148.58548828127675,0.00013417017269415623
148.78546875002678,0.00010635353811908608
148.9854492187768,0.00019412615572473061
149.18542968752686,0.00014941809606378847
149.3854101562769,9.852721355819935e-05
149.58539062502692,0.00017614172135775138
149.78537109377697,0.0001892615381657968
149.985351562527,8.831292920981333e-05
150.18533203127703,0.00010630660893330524
150.38531250002708,0.00015490406079336023
150.5852929687771,0.00025570236854222285
150.78527343752714,9.416210998831e-05
150.9852539062772,0.00015311028835209128
151.18523437502722,7.930700163447248e-05
151.38521484377725,0.00011207331585961465
151.58519531252728,0.00024785724424356215
151.78517578127733,0.00014007342090245075
151.98515625002736,6.425554001293923e-05
152.1851367187774,0.0001736454152676009
152.38511718752744,9.595484618097121e-05
152.58509765627747,7.795368741242186e-05
152.7850781250275,0.000149017377502188
152.98505859377755,6.771135395027003e-05
153.18503906252758,0.00010160699610273761
153.3850195312776,7.452528465771954e-05
153.58500000002766,0.0003765690497160434
153.7849804687777,5.7446753403093274e-05
153.98496093752772,0.0001857946650099759
154.18494140627774,3.807218467552187e-05
154.3849218750278,0.00016091693083698306
154.58490234377783,0.00013273552408225655
154.78488281252785,9.322842132302688e-05
154.9848632812779,8.431357334218772e-05
155.18484375002794,6.3109366139461e-05
155.38482421877796,0.00023556239117771016
155.58480468752802,0.00017412458361434267
155.78478515627805,0.00021105140453802113
155.98476562502807,0.00029763369580871875
156.1847460937781,0.00017103283828664526
156.38472656252816,6.162244809288117e-05
156.58470703127819,0.00021075236793696397
156.7846875000282,0.00022881539311637333
156.98466796877827,0.00025215412375163056
157.1846484375283,0.0001224393838898651
157.38462890627832,6.456235444921506e-05
157.58460937502838,0.00011713789314230852
157.7845898437784,0.00013729102103449844
157.98457031252843,0.00015083509666433207
158.1845507812785,4.6699735799476505e-05
158.38453125002852,0.00021088543519666317
158.58451171877854,0.0002036931580202691
158.78449218752857,8.731757779258356e-05
158.98447265627863,0.00017650443401960667
159.18445312502865,0.00019056682241446192
159.38443359377868,0.00014820709351763805
159.58441406252874,0.00017980829079751608
159.78439453127876,0.00022731813247319624
159.9843750000288,3.100429260260496e-05
160.18435546877885,7.768511298372109e-05
160.38433593752887,3.6851371558665525e-05
160.5843164062789,0.0001423104190044111
160.78429687502896,0.00012708840722462503
160.98427734377898,0.0001588635767736035
161.184257812529,4.7881710975570204e-05
161.38423828127904,0.0002080464755362739
161.5842187500291,1.3718299712165054e-05
161.78419921877912,0.00015149001798848798
161.98417968752915,0.0002062030692747287
162.1841601562792,6.183534510648491e-05
162.38414062502923,2.253086444995376e-05
162.58412109377926,0.00025001968659139564
162.78410156252932,0.0003122689775793942
162.98408203127934,0.00011628467353925261
163.18406250002937,0.0002532217782659312
163.38404296877943,0.00022194653060094365
163.58402343752945,4.011320642424194e-05
163.78400390627948,0.00029699658761090855
163.9839843750295,8.76477153394004e-05
164.18396484377956,0.00015992446409965536
164.3839453125296,7.612741047583577e-05
164.58392578127962,0.0001694770136198054
164.78390625002967,8.719462903345632e-06
164.9838867187797,0.0001474420896764387
165.18386718752973,0.00028035902226285924
165.38384765627978,9.20939301716761e-05
165.5838281250298,7.6855238432169e-05
165.78380859377984,0.00014047199524474724
165.9837890625299,9.49032659144779e-05
166.18376953127992,3.27166629885938e-05
166.38375000002995,0.00028565993097033393
166.58373046877998,5.706872152228175e-05
166.78371093753003,0.0002164690092955474
166.98369140628006,5.52753373347283e-05
167.1836718750301,0.0002831327607706332
167.38365234378014,0.00010606200354161127
167.58363281253017,8.938675925832074e-05
167.7836132812802,0.00015739938376134943
167.98359375003025,0.0001819928537545468
168.18357421878028,5.5404776534356104e-05
168.3835546875303,7.595763550991126e-05
168.58353515628033,8.114675125689877e-05
168.7835156250304,9.910699228946095e-05
168.98349609378042,0.0001377012758424588
169.18347656253044,8.048790459047898e-05
169.3834570312805,0.00010523565889671103
169.58343750003053,0.0001497100635507487
169.78341796878055,0.00016373144741855598
169.9833984375306,0.00013852332007060564
170.18337890628064,3.936898632477832e-05
170.38335937503066,0.0001492998815851712
170.58333984378072,0.00010107514266013387
170.78332031253075,0.0001226428981963194
170.98330078128078,0.00023013485071453587
171.1832812500308,0.00029129898868932307
171.38326171878086,0.00010474305725052758
171.58324218753089,3.2400248012263085e-05
171.7832226562809,6.821179569405192e-05
171.98320312503097,0.00013314661822503857
172.183183593781,4.187769609723615e-05
172.38316406253102,0.00020525957947894156
172.58314453128108,0.00011282752572073624
172.7831250000311,0.00018027855825399606
172.98310546878113,0.00012249577195006778
173.1830859375312,0.00011268471849909339
173.38306640628122,0.00016742903069022637
173.58304687503124,5.513673209525094e-05
173.78302734378127,0.00018361933329894798
173.98300781253133,0.00011504998242553825
174.18298828128135,9.728585738373424e-05
174.38296875003138,0.0002282880465152014
174.58294921878144,7.385254356187949e-05
174.78292968753146,0.00011288992682275495
174.9829101562815,0.00011979284305405535
175.18289062503155,0.0002075682280441717
175.38287109378157,0.0002894793201640344
175.5828515625316,7.283685766019635e-05
175.78283203128166,0.00019901203228571787
175.98281250003168,9.120727069489594e-05
176.1827929687817,6.342314285557449e-05
176.38277343753174,0.00016372757345517428
176.5827539062818,0.00019959688665760532
176.78273437503182,5.5235162341548274e-05
176.98271484378185,0.00019407778415883673
177.1826953125319,0.00023034910676451438
177.38267578128193,0.00013948259541156474
177.58265625003196,6.546717938979984e-05
177.78263671878202,9.598564266595653e-05
177.98261718753204,0.0003048055351009204
178.18259765628207,3.510572008185217e-05
178.38257812503213,0.0001892732253009108
178.58255859378215,3.786779655126906e-05
178.78253906253218,0.00014178621924388536
178.9825195312822,0.0002644234152635194
179.18250000003226,2.082651654336109e-05
179.3824804687823,0.0002147780893851061
179.58246093753232,0.00024860706102304824
179.78244140628237,0.00010564100526166129
179.9824218750324,7.772129235341055e-05
180.18240234378243,8.731894878954562e-05
180.38238281253248,6.337629677227732e-05
180.5823632812825,9.151952397535809e-05
180.78234375003254,0.00014194214139662126
180.9823242187826,0.00012974784089457531
181.18230468753262,8.111963355727875e-05
181.38228515628265,5.9381626497480555e-05
181.58226562503268,3.2599347881913595e-05
181.78224609378273,0.00014947280917755834
181.98222656253276,0.0002535308817800804
182.1822070312828,0.0001565670596606384
182.38218750003284,0.00024175572374800344
182.58216796878287,9.715437386309945e-06
182.7821484375329,0.000241899471068895
182.98212890628295,0.0001513982504251748
183.18210937503298,0.00016042121004612882
183.382089843783,0.00011468160183073563
183.58207031253303,0.00017874824803026202
183.7820507812831,6.51150894432188e-05
183.98203125003312,8.274729952414321e-05
184.18201171878314,0.00012560787975248976
184.3819921875332,0.0001536214816562218
184.58197265628323,0.0003143727928643238
184.78195312503325,0.00011478494767380578
184.9819335937833,4.0274082922316394e-05
185.18191406253334,6.255069771393989e-05
185.38189453128336,9.357202648250777e-05
185.58187500003342,2.8287524670209743e-05
185.78185546878345,0.00020172831727011326
185.98183593753348,8.488891982659086e-05
186.1818164062835,0.0003156468802887369
186.38179687503356,8.350914154583506e-05
186.58177734378359,4.261421851124518e-05
186.7817578125336,6.0290051201572496e-05
186.98173828128367,7.522571943875273e-05
187.1817187500337,7.309448218565017e-05
187.38169921878372,0.00019743346280803867
187.58167968753378,4.363112206947136e-05
187.7816601562838,8.977328941788897e-05
187.98164062503383,0.00022498265424548064
188.1816210937839,7.047379198799941e-05
188.38160156253392,0.00010817693538417268
188.58158203128394,0.00017793555157781602
188.78156250003397,0.00032246713553711354
188.98154296878403,0.00013698759491484323
189.18152343753405,0.00022336692445527667
189.38150390628408,0.00016977594359194914
189.58148437503414,0.00021889260496989736
189.78146484378416,0.0001598242330636775
189.9814453125342,0.00011877126809895042
190.18142578128425,0.0002265695686859852
190.38140625003427,7.007233372961754e-05
190.5813867187843,0.0002661239191173278
190.78136718753436,3.582883423091313e-05
190.98134765628438,0.0001392494663400771
191.1813281250344,0.00018768982395789833
191.38130859378444,0.0001920128374915614
191.5812890625345,0.00022361302016946167
191.78126953128452,0.00016278664230352717
191.98125000003455,0.00012948215953234606
192.1812304687846,2.227097997062479e-05
192.38121093753463,0.00020868472567835703
192.58119140628466,0.00021444998367822554
192.78117187503472,0.00017291769230929596
192.98115234378474,0.0001036148672062404
193.18113281253477,0.00013986834956618546
193.38111328128483,6.0418938857103745e-05
193.58109375003485,0.00014252936677248987
193.78107421878488,0.00011343851113007261
193.9810546875349,8.256785258048898e-05
194.18103515628496,0.0001537815726707442
194.381015625035,7.804750740509066e-05
194.58099609378502,0.0001455217064212601
194.78097656253507,8.488948298929986e-05
194.9809570312851,0.0002860374428814595
195.18093750003513,0.00014443085305825153
195.38091796878518,8.712995788001296e-05
195.5808984375352,0.0002572209930128567
195.78087890628524,3.2381900366951616e-05
195.9808593750353,0.00021994546141309402
196.18083984378532,0.00016595345723420253
196.38082031253535,6.210672943572296e-05
196.58080078128538,0.00018218356174577824
196.78078125003543,0.00019675281330558135
196.98076171878546,0.00012533128481902165
197.1807421875355,0.0001596216212792391
197.38072265628554,0.00012032244415161012
197.58070312503557,0.00011722278187751699
197.7806835937856,5.817736926640536e-05
197.98066406253565,7.374754181797307e-05
198.18064453128568,2.7357920230189913e-05
198.3806250000357,1.560296052346212e-05
198.58060546878573,2.392180756475166e-05
198.7805859375358,0.00010375254976314609
198.98056640628582,0.00025957454946985107
199.18054687503584,0.00016760052810655434
199.3805273437859,4.265068212303341e-05
199.58050781253593,0.00011136597625322625
199.78048828128595,0.00017302182137087147
199.980468750036,0.0001035462876970471
200.18044921878604,6.379988954314396e-05
200.38042968753606,0.00013955661403179824
200.58041015628612,7.198698025256542e-05
200.78039062503615,0.0001616854922720778
200.98037109378618,0.00019812324909313606
201.1803515625362,0.000194514364066087
201.38033203128626,7.394995840728464e-05
201.58031250003629,7.654389537804465e-05
201.7802929687863,0.00025387025363349854
201.98027343753637,0.00010223042713169776
202.1802539062864,0.00011639418070068461
202.38023437503642,0.00011052532213552061
202.58021484378648,4.570365817176486e-05
202.7801953125365,9.35919229304776e-05
202.98017578128653,0.00018506948526184476
203.1801562500366,0.0001842721102364189
203.38013671878662,4.5426918454079414e-05
203.58011718753664,0.00016951464874807507
203.78009765628667,0.00014724849501731858
203.98007812503673,0.00012525649428646017
204.18005859378675,6.748835332847673e-05
204.38003906253678,8.860358910814461e-05
204.58001953128684,0.00010095696823010071
204.78000000003686,6.912305532267073e-05
204.9799804687869,0.00010718920677088254
205.17996093753695,0.00021026201417554595
205.37994140628697,4.7527963792145085e-05
205.579921875037,0.00036053047518871137
205.77990234378706,0.0001257109727278851
205.97988281253708,0.00034309032457883955
206.1798632812871,0.00022369741571428545
206.37984375003714,0.00013487841637836165
206.5798242187872,0.00021781481726101425
206.77980468753722,2.677207170991477e-05
206.97978515628725,0.00015359593738768632
207.1797656250373,0.0001512543218115436
207.37974609378733,2.6734246406955267e-05
207.57972656253736,0.00010904684095653034
207.77970703128742,6.727158714980108e-05
207.97968750003744,4.254521256494381e-05
208.17966796878747,0.0002504558373503968
208.37964843753753,0.00011208387415194079
208.57962890628755,0.00016466232576236336
208.77960937503758,9.207048431347617e-05
208.9795898437876,0.00012938706114215017
209.17957031253766,0.00022433773705552557
209.3795507812877,0.00014748438147431755
209.57953125003772,7.985118049074865e-05
209.77951171878777,0.0001555178168736663
209.9794921875378,0.00022069122714533023
210.17947265628783,0.0001970614160265431
210.37945312503788,9.503213107938492e-05
210.5794335937879,0.00020226694629921763
210.77941406253794,0.00023945741165094098
210.979394531288,0.00019528253158270675
211.17937500003802,8.579158266723882e-05
211.37935546878805,0.00025735820920888536
211.57933593753808,6.521119420929816e-05
211.77931640628813,0.000188536121467393
211.97929687503816,7.79232965576532e-05
212.1792773437882,0.0001881959333073795
212.37925781253824,0.00018784135781413054
212.57923828128827,0.00020474680423673253
212.7792187500383,0.00017513679699824512
212.97919921878835,3.287972338629888e-05
213.17917968753838,0.0002032130230506246
213.3791601562884,9.620784539312254e-05
213.57914062503843,2.6333729166684254e-05
213.7791210937885,9.670945206014642e-05
213.97910156253852,9.359189043085423e-05
214.17908203128854,0.00019558048322752122
214.3790625000386,0.00018904350904002976
214.57904296878863,2.5112748342039174e-05
214.77902343753865,0.00018914808400958188
214.9790039062887,0.00014741916849405
215.17898437503874,4.693665231702204e-05
215.37896484378876,0.00035420787056792666
215.57894531253882,0.0001182239895605396
215.77892578128885,0.00016329909987004233
215.97890625003888,0.00015287716577687434
216.1788867187889,0.00015282057194914008
216.37886718753896,7.05131536827422e-05
216.57884765628899,0.00011475811351172911
216.778828125039,8.213080494022113e-05
216.97880859378907,0.000149763622680839
217.1787890625391,0.00015737733388126098
217.37876953128912,0.00020314438927959965
217.57875000003918,0.0001522231729744516
217.7787304687892,0.00013728827959084728
217.97871093753923,9.058955247772267e-05
218.1786914062893,0.0001322711962909043
218.37867187503932,5.859287946156453e-05
218.57865234378934,4.6786050894403704e-05
218.77863281253937,7.764401474044718e-05
218.97861328128943,2.2376751555468765e-05
219.17859375003945,7.160915750931813e-05
219.37857421878948,0.00023399116438414447
219.57855468753954,5.587980971709364e-05
219.77853515628956,5.811816929522009e-05
219.9785156250396,0.00016147277673900782
220.17849609378965,9.365426108846483e-05
220.37847656253967,0.00010530868715074873
220.5784570312897,0.0002077369690220755
220.77843750003976,5.422347269648917e-05
220.97841796878978,0.00013070015549915455
221.1783984375398,8.57439032593009e-05
221.37837890628984,0.00014056758659032378
221.5783593750399,0.00011379203134799103
221.77833984378992,0.00017653131820149852
221.97832031253995,9.796690668397663e-06
222.17830078129,0.00016635931356146784
222.37828125004003,0.00013904118304111025
222.57826171879006,0.0001141561577948504
222.77824218754012,0.0001446401812388047
222.97822265629014,9.50160494072416e-05
223.17820312504017,0.0002897902356314974
223.37818359379023,0.00023029537369382658
223.57816406254025,0.00013727506948368106
223.77814453129028,0.00014474398884476084
223.9781250000403,0.000108449769320337
224.17810546879036,0.00014003697442764522
224.3780859375404,0.00022017949483206316
224.57806640629042,0.0001895881686322206
224.77804687504047,0.0003121682093054931
224.9780273437905,0.00012894255549407066
225.17800781254053,5.911783697935999e-05
225.37798828129058,4.245308965889986e-05
225.5779687500406,0.0003275460724480795
225.77794921879064,0.00013778747124171964
225.9779296875407,0.00021028848736080313
226.17791015629072,0.00012506139857555688
226.37789062504075,0.00010945631618296684
226.57787109379078,0.00011245774585499738
226.77785156254083,0.0002087668067371732
226.97783203129086,9.27148015151604e-05
227.1778125000409,0.0002708281023495982
227.37779296879094,0.00028656993471370696
227.57777343754097,0.0002874944776183883
227.777753906291,4.867929920023059e-05
227.97773437504105,0.0002463868515439978
228.17771484379108,0.00018529318174464606
228.3776953125411,0.00017448213189447
228.57767578129113,9.28388646097499e-05
228.7776562500412,0.00022846925118542201
228.97763671879122,9.987610693714153e-05
229.17761718754124,0.0002781302744847082
229.3775976562913,2.696629806771859e-05
229.57757812504133,0.00014834207214831446
229.77755859379135,0.00014028897987868115
229.9775390625414,0.000110689574585342
230.17751953129144,7.978851313596857e-05
230.37750000004147,0.00013376274846734648
230.57748046879152,0.00011635525191604527
230.77746093754155,0.0001448136521972403
230.97744140629158,2.9667051607075925e-05
231.1774218750416,6.990372719255685e-05
231.37740234379166,0.0002531977453122157
231.57738281254169,0.00010119442628294179
231.7773632812917,0.0002143947646101035
231.97734375004177,0.00016109326109290775
232.1773242187918,0.00017987281632579554
232.37730468754182,0.00014590967192973833
232.57728515629188,8.395820239422795e-06
232.7772656250419,7.296986027484158e-05
232.97724609379193,0.00021356613118585409
233.177226562542,0.00020216434061345867
233.37720703129202,5.845282683045642e-05
233.57718750004204,6.646425733278708e-05
233.77716796879207,0.00012287084503411204
233.97714843754213,3.781540329263848e-05
234.17712890629215,3.676784015991527e-05
234.37710937504218,0.0002064582899487746
234.57708984379224,0.00020267324320525325
234.77707031254226,0.00017549344799292518
234.9770507812923,9.777661564733291e-05
235.17703125004235,0.00011141885264754546
235.37701171879237,4.2751487993732166e-05
235.5769921875424,0.00017127981121695763
235.77697265629246,7.079693317833096e-05
235.97695312504248,0.0001320685409100153
236.1769335937925,0.00013618770289316922
236.37691406254254,0.0003201992292869128
236.5768945312926,0.00020613537956781214
236.77687500004262,0.0001133568533428073
236.97685546879265,7.677175915204402e-05
237.1768359375427,0.0001914605164120215
237.37681640629273,0.00018474353188048629
237.57679687504276,0.00020044323481277124
237.77677734379282,0.00022107847834231713
237.97675781254284,0.00015768165552043384
238.17673828129287,0.0001358948419877567
238.37671875004293,0.00020568772072109432
238.57669921879295,7.278939494340214e-05
238.77667968754298,0.00016507580444059903
238.976660156293,7.343862689668284e-05
239.17664062504306,0.00015956739740944988
239.3766210937931,0.0003128554910539359
239.57660156254312,0.00014685154004951485
239.77658203129317,7.054927482617616e-05
239.9765625000432,8.711123131560012e-05
240.17654296879323,0.00023009068405260995
240.37652343754328,2.3025688100004416e-05
240.5765039062933,0.00011335401605298691
240.77648437504334,7.980347103115572e-05
240.9764648437934,0.00011085199034791931
241.17644531254342,4.1212518806360446e-05
241.37642578129345,0.00017114230239231003
241.57640625004348,2.7692512892188225e-05
241.77638671879353,0.0002302663331432094
241.97636718754356,5.3685416172494034e-05
242.1763476562936,0.0001142753104893979
242.37632812504364,8.261632531591152e-05
242.57630859379367,9.173650876870787e-05
242.7762890625437,0.00028802327908618633
242.97626953129375,0.00013405073800613193
243.17625000004378,0.00017607274830954493
243.3762304687938,0.00015715453153620056
243.57621093754383,8.305709633532073e-05
243.7761914062939,0.00017093026670078195
243.97617187504392,0.00019044015698786308
244.17615234379394,0.000190471449960646
244.376132812544,9.596777018496776e-05
244.57611328129403,3.7187311957521116e-05
244.77609375004405,0.00019723295809715832
244.9760742187941,0.00013068414224917001
245.17605468754414,7.319052412750001e-05
245.37603515629417,0.00012281611755451946
245.57601562504422,2.698726452067352e-05
245.77599609379425,0.00020598715779590154
245.97597656254428,0.00022418357681207795
246.1759570312943,0.00011544659340891266
246.37593750004436,0.00015084661313526362
246.57591796879439,0.0002261391323620873
246.7758984375444,0.00010297872406300557
246.97587890629447,1.625970534909486e-05
247.1758593750445,8.963226357374593e-05
247.37583984379452,4.917128124640682e-05
247.57582031254458,0.00019987569704804214
247.7758007812946,8.638226859151906e-05
247.97578125004463,9.589091274375291e-05
248.1757617187947,0.00023822393944215
248.37574218754472,0.00017738414316218875
248.57572265629474,0.00018861585814779723
248.77570312504477,9.10527877286765e-05
248.97568359379483,0.0002085376608728331
249.17566406254485,4.029403532445103e-05
249.37564453129488,0.0001105287989025524
249.57562500004494,0.00020545301387776339
249.77560546879496,8.434308970567208e-05
249.975585937545,4.840020463729264e-05
250.17556640629505,3.326594793933894e-05
250.37554687504507,0.0003378630917880521
250.5755273437951,0.00011744589143450019
250.77550781254516,7.514856144181007e-05
250.97548828129518,3.92162712358079e-05
251.1754687500452,0.0001592906392424053
251.37544921879524,6.29608959401474e-05
251.5754296875453,0.00013620642806078578
251.77541015629532,0.00011734539226924577
251.97539062504535,0.0002260081660134163
252.1753710937954,3.982273010453387e-05
252.37535156254543,0.00013317655078689218
252.57533203129546,5.7316457356405404e-05
252.77531250004552,5.6869897984186e-05
252.97529296879554,0.00011975690893201233
253.17527343754557,0.0001746058905849828
253.37525390629563,4.137077622389909e-05
253.57523437504565,5.583365731099169e-05
253.77521484379568,2.7334239757467616e-05
253.9751953125457,0.00011291979433184358
254.17517578129576,0.0002814637183527927
254.3751562500458,0.00015154231109459361
254.57513671879582,0.00023067729191703578
254.77511718754587,0.00016655833568252724
254.9750976562959,6.237430348875485e-05
255.17507812504593,0.0002148284308515835
255.37505859379598,0.0002939035570728839
255.575039062546,8.398626610745734e-05
255.77501953129604,0.0002292413115151516
255.97500000004607,7.272985506759364e-05
256.1749804687961,8.774482689692653e-05
256.3749609375462,0.000238937413245735
256.5749414062962,0.00019081850270033374
256.77492187504623,0.0001916319366189722
256.97490234379626,0.0002571852131659835
257.1748828125463,0.00021755137647604128
257.3748632812963,0.00020770453353509017
257.57484375004634,2.367530147963874e-05
257.7748242187964,0.00013452642989575576
257.97480468754645,0.0001695986789686684
258.1747851562965,0.0001264567121214829
258.3747656250465,9.75454257256044e-05
258.57474609379653,5.299619281484389e-05
258.77472656254656,0.00017381527172033288
258.97470703129665,3.378586903196317e-05
259.1746875000467,7.164039643851475e-05
259.3746679687967,0.00021064343695110382
259.5746484375467,0.0002684149942416894
259.77462890629675,0.00024267732149429425
259.9746093750468,0.00021291733947848414
260.1745898437968,0.00012847969135881582
260.3745703125469,0.00018304777741436946
260.5745507812969,0.00017173875920524373
260.77453125004695,0.00012232102331454178
260.974511718797,0.00012187725081903947
261.174492187547,0.00015419223871483475
261.37447265629703,0.0004343867130667721
261.5744531250471,0.0001592185562725645
261.77443359379714,0.00010127677705556114
261.97441406254717,0.00018836975911707465
262.1743945312972,7.396305675111078e-05
262.3743750000472,0.00010997903930478551
262.57435546879725,0.0001386031535538539
262.7743359375473,0.00011714954187285733
262.97431640629736,0.00023019408152113375
263.1742968750474,0.0001420063355742486
263.3742773437974,5.622548489068217e-05
263.57425781254744,0.0001802008493420189
263.77423828129747,0.00011257618184471782
263.9742187500475,0.0001853647182726815
264.1741992187976,0.00017406127034852486
264.3741796875476,0.00016053688055989895
264.57416015629764,0.00014318688840780976
264.77414062504766,6.181893101673578e-05
264.9741210937977,0.0001776537355827973
265.1741015625477,7.588444489807001e-05
265.37408203129775,3.551436613719429e-05
265.57406250004783,0.00017113517485506025
265.77404296879786,0.00015300452515206112
265.9740234375479,0.000142181697340833
266.1740039062979,8.071939953656515e-05
266.37398437504794,6.605525351915355e-05
266.57396484379797,0.00013134603225292097
266.77394531254805,0.00018309612936469373
266.9739257812981,0.00019597342275872728
267.1739062500481,0.00022598587524462086
267.37388671879813,0.00018645539919987048
267.57386718754816,8.311139998237296e-05
267.7738476562982,0.00017901757679200816
267.9738281250482,0.00029837452039070764
268.1738085937983,0.00020043154373055412
268.3737890625483,0.00015782680441771223
268.57376953129835,0.00022879715587660441
268.7737500000484,0.00010249829755302834
268.9737304687984,0.00021273940216704932
269.17371093754844,0.0002523486152744617
269.3736914062985,0.00017528225472836703
269.57367187504855,5.480811815176373e-05
269.7736523437986,0.00019094162204110767
269.9736328125486,0.00023042028308879983
270.1736132812986,8.290497084466785e-05
270.37359375004866,0.00010691193050279848
270.5735742187987,0.00023345521043132843
270.77355468754877,3.855995348371186e-05
270.9735351562988,0.0001326145154075656
271.1735156250488,0.0001319063536351939
271.37349609379885,0.0002569258702254546
271.5734765625489,4.4048104633650345e-05
271.7734570312989,4.315179574893496e-05
271.973437500049,0.00020407782744709065
272.173417968799,7.186634864653754e-05
272.37339843754904,0.00016499731142605986
272.57337890629907,0.00018025551321640634
272.7733593750491,9.70399873064916e-05
272.9733398437991,7.373959837313324e-05
273.17332031254915,0.00010713993387292936
273.37330078129924,6.233537788327599e-05
273.57328125004926,0.000185034465234597
273.7732617187993,0.00010768216208518973
273.9732421875493,0.00015423806998465456
274.17322265629934,0.00017739381391521246
274.3732031250494,0.0003202496813813876
274.57318359379946,0.00015177256719128601
274.7731640625495,0.00031982645107871957
274.9731445312995,0.00018515654640890552
275.17312500004954,6.377349288929809e-05
275.37310546879957,5.959650063159735e-05
275.5730859375496,0.00026233068980093904
275.7730664062996,8.432042417243088e-05
275.9730468750497,2.2986338794728525e-05
276.17302734379973,7.904331038028328e-05
276.37300781254976,3.161686121108672e-05
276.5729882812998,0.00013895868497847423
276.7729687500498,7.532026936782932e-05
276.97294921879984,0.00013869834731593763
277.1729296875499,8.740501467288099e-05
277.37291015629995,0.00013505902667104564
277.57289062505,0.0002124517882719591
277.7728710938,7.112595747810449e-05
277.97285156255003,0.00017091737804890666
278.17283203130006,0.00013185231466483375
278.3728125000501,0.0001620348570076001
278.5727929688002,0.000264685328985775
278.7727734375502,0.00017878178955063498
278.9727539063002,0.00015135069177982938
279.17273437505025,0.0001518131348836376
279.3727148438003,0.00018825887780293124
279.5726953125503,0.00011194455697370647
279.77267578130034,0.00012691362715708555
279.9726562500504,0.00015237925513806038
280.17263671880045,5.952476327419415e-05
280.3726171875505,3.5808921004294274e-05
280.5725976563005,0.0001952201540096201
280.77257812505053,8.316002227651373e-05
280.97255859380056,9.632607571135521e-05
281.17253906255064,0.00023385760959168385
281.37251953130067,0.00012391098648657146
281.5725000000507,2.9135438752031453e-05
281.7724804688007,8.021001144626751e-05
281.97246093755075,0.00017843898901539275
282.1724414063008,0.0002012638386207703
282.3724218750508,6.46266912395063e-05
282.5724023438009,0.00016672418064421095
282.7723828125509,0.0002102908550352979
282.97236328130094,2.2921698365772414e-05
283.17234375005097,0.00017029610779835977
283.372324218801,0.000121990645267011
283.572304687551,0.0002229118499696126
283.7722851563011,0.00013210137683318545
283.97226562505114,0.0001276382606738148
284.17224609380116,0.00028284894028466983
284.3722265625512,0.00012327734562819808
284.5722070313012,0.00010985564607539922
284.77218750005125,0.0001445539210271203
284.9721679688013,6.130423938971891e-05
285.17214843755136,0.0001109743966309437
285.3721289063014,0.00014199456867734805
285.5721093750514,0.0002428327480271165
285.77208984380144,0.00013765650711779944
285.97207031255147,2.4217028743762618e-05
286.1720507813015,0.00013847498275126847
286.3720312500516,0.00011153665058140435
286.5720117188016,0.00011805809139266735
286.77199218755163,0.00020495483446419696
286.97197265630166,0.00012926303079926698
287.1719531250517,0.00023414241034838305
287.3719335938017,0.0001559123868863705
287.57191406255174,0.0001524203310032358
287.7718945313018,0.00010714243085474984
287.97187500005185,0.000127614663583386
288.1718554688019,0.00022629181189362434
288.3718359375519,3.8086525428359974e-05
288.57181640630193,0.00010893451006911784
288.77179687505196,8.865169677143618e-05
288.97177734380205,0.0001165768008783492
289.1717578125521,0.00013275915632326608
289.3717382813021,0.00015810897199110242
289.5717187500521,0.00013823445912078595
289.77169921880215,3.939707480599789e-05
289.9716796875522,0.00019522273585292476
290.1716601563022,8.187465966390111e-05
290.3716406250523,8.328857007207775e-05
290.5716210938023,0.0003207546933613907
290.77160156255235,0.00013776121530408917
290.9715820313024,0.00020179886082822017
291.1715625000524,0.00019532737328605785
291.37154296880243,0.0001722828592985608
291.5715234375525,0.0001233961837561403
291.77150390630254,6.438062547439143e-05
291.97148437505257,9.943008777340217e-05
292.1714648438026,0.00018174309451113793
292.3714453125526,0.00012000181876360625
292.57142578130265,0.00010076486667580224
292.7714062500527,0.00017803868175020305
292.97138671880276,6.611830475928838e-05
293.1713671875528,0.0002126539202001863
293.3713476563028,0.00012308101761864082
293.57132812505284,0.00013681890836865347
293.77130859380287,0.00018484533840499144
293.9712890625529,0.00016104132890028928
294.171269531303,8.475672790893959e-05
294.371250000053,0.00010242777233201024
294.57123046880304,6.70472448832674e-05
294.77121093755306,8.503647069425029e-05
294.9711914063031,0.00019256991291965268
295.1711718750531,9.726632116344919e-05
295.37115234380315,9.431661180326381e-05
295.57113281255323,0.00011880784780237693
295.77111328130326,0.0001791336437782879
295.9710937500533,5.6790156275221466e-05
296.1710742188033,5.003652075084543e-05
296.37105468755334,0.00014906166196733067
296.57103515630337,7.874329896547575e-05
296.77101562505345,0.0001712315408712627
296.9709960938035,0.000112021808186872
297.1709765625535,0.00011228675844290385
297.37095703130353,0.00015316694006180018
297.57093750005356,0.00011964890580364906
297.7709179688036,6.97585582587254e-05
297.9708984375536,0.0001766742682792152
298.1708789063037,8.73172632686166e-05
298.3708593750537,7.145042244248755e-06
298.57083984380375,0.0002212896367564855
298.7708203125538,0.00012514404726926074
298.9708007813038,0.00012179516270893558
299.17078125005384,6.862998503175665e-05
299.3707617188039,9.365110000768208e-05
299.57074218755395,1.644499573881469e-05
299.770722656304,8.571007447845917e-05
299.970703125054,0.00010123166996843635
300.17068359380403,5.285839930024554e-05
300.37066406255406,0.0001199698175799009
300.5706445313041,6.422277322372898e-05
300.77062500005417,0.00012397633387785644
300.9706054688042,8.773766216134117e-05
301.1705859375542,0.00018367116811965906
301.37056640630425,0.0001386255179723353
301.5705468750543,0.00013770701815724536
301.7705273438043,4.444422640821551e-05
301.9705078125544,0.00025560156787499393
302.1704882813044,0.00031198964139882396
302.37046875005444,3.767297255122471e-05
302.57044921880447,9.51988190405374e-05
302.7704296875545,9.293701393327727e-05
302.9704101563045,0.0003005486479278631
303.17039062505455,9.380339140471537e-05
303.37037109380464,0.00012147669394799287
303.57035156255466,0.0003100193717014239
303.7703320313047,0.00012909507536161996
303.9703125000547,0.00010327935937781692
304.17029296880474,7.592933895210084e-05
304.3702734375548,9.466923602062172e-05
304.57025390630486,0.00012720710433735023
304.7702343750549,0.0002266252022354885
304.9702148438049,0.00012469781264374134
305.17019531255494,4.405067835033565e-05
305.37017578130497,8.231399143950643e-05
305.570156250055,9.000432575156757e-05
305.770136718805,7.525044424057678e-05
305.9701171875551,4.708127491205968e-05
306.17009765630513,0.00016268181701624318
306.37007812505516,0.00011194068325190727
306.5700585938052,0.00011789740344993843
306.7700390625552,0.00010163112769809788
306.97001953130524,0.00010585412813521234
307.1700000000553,7.303539576757294e-05
307.36998046880535,9.706948409866751e-05
307.5699609375554,0.00014817607600459208
307.7699414063054,5.872134440012071e-06
307.96992187505543,1.484253888470927e-05
308.16990234380546,0.00025989550790690767
308.3698828125555,3.484429369887372e-05
308.5698632813056,0.0002493249621259574
308.7698437500556,0.00010924088283490357
308.9698242188056,0.0002682821233700094
309.16980468755565,0.0002455467562416461
309.3697851563057,7.337601204033585e-05
309.5697656250557,0.00023481534172999086
309.76974609380574,4.1793478866084e-05
309.9697265625558,0.00019003650721139838
310.16970703130585,2.6629640010292934e-05
310.3696875000559,0.00011232741858765142
310.5696679688059,6.501641096663667e-05
310.76964843755593,4.876721177992313e-05
310.96962890630596,2.6299587488199283e-05
311.16960937505604,0.0001825477776155899
311.36958984380607,0.00013421828683084867
311.5695703125561,8.291510207430563e-05
311.7695507813061,0.0002459701523243166
311.96953125005615,0.00010511431010487981
312.1695117188062,7.241968469913348e-05
312.3694921875562,3.854730829136767e-05
312.5694726563063,0.00015533709036866646
312.7694531250563,0.00015474974642183223
312.96943359380634,0.00013211489639960983
313.16941406255637,8.666214361949704e-05
313.3693945313064,3.412771901169212e-05
313.5693750000564,0.00013610735451202944
313.7693554688065,2.7491982410828053e-05
313.96933593755654,7.53755702532272e-05
314.16931640630656,0.00011799744876840719
314.3692968750566,0.00014867661039383198
314.5692773438066,0.00011978872862952412
314.76925781255665,0.00011307855783742952
314.9692382813067,0.00014425985067294586
315.16921875005676,0.00026884116735882317
315.3691992188068,8.471848666193765e-05
315.5691796875568,8.180809952996584e-05
315.76916015630684,5.228116661165155e-05
315.96914062505687,9.291518928872928e-05
316.1691210938069,6.070684121634686e-05
316.369101562557,5.119735238987497e-05
316.569082031307,7.76108020098326e-05
316.76906250005703,0.0001687449506639872
316.96904296880706,0.0001645274338601051
317.1690234375571,0.00010921756735287254
317.3690039063071,3.821150544918911e-05
317.56898437505714,2.3729644385054084e-05
317.7689648438072,0.00026366440902587376
317.96894531255725,4.6909200364226954e-05
318.1689257813073,0.00017264586182322511
318.3689062500573,0.00012715513992110815
318.56888671880733,7.730226085361235e-05
318.76886718755736,0.00024503990827034545
318.96884765630745,6.847745949492211e-05
319.1688281250575,0.00011292569343656324
319.3688085938075,3.5286184823697377e-05
319.5687890625575,0.00018112446390224692
319.76876953130756,0.00017577286187312212
319.9687500000576,0.00016814788625163092
320.1687304688076,0.00020782682654278846
320.3687109375577,4.7961179207940734e-05
320.5686914063077,0.00010386299654877871
320.76867187505775,5.938306914410604e-05
320.9686523438078,0.00012400446635987768
321.1686328125578,0.00010937795650961108
321.36861328130783,0.00012674196046361875
321.5685937500579,0.00010463595037920233
321.76857421880794,5.293614280090034e-05
321.96855468755797,0.00027638967605017373
322.168535156308,0.00012943434511376723
322.368515625058,0.00012098775033561859
322.56849609380805,8.782357864054019e-05
322.7684765625581,9.202518859654855e-05
322.96845703130816,5.913251105597666e-05
323.1684375000582,0.00011408776523736419
323.3684179688082,0.00021815381170367152
323.56839843755824,6.361265223646674e-05
323.76837890630827,0.00010027473322246742
323.9683593750583,9.213016716723047e-05
324.1683398438084,0.0001564064368408815
324.3683203125584,0.00013147920899588423
324.56830078130844,0.0001261624641381369
324.76828125005846,0.0001601305182007541
324.9682617188085,1.7068791697341362e-05
325.1682421875585,0.00012349106875075418
325.36822265630855,0.00010559848575017251
325.56820312505863,0.00014570535873149006
325.76818359380866,9.083182805624664e-05
325.9681640625587,9.78431752715203e-05
326.1681445313087,2.727920495761454e-05
326.36812500005874,0.00018044514033959937
326.56810546880877,0.00012780996991939043
326.76808593755885,8.675285347669828e-05
326.9680664063089,0.00024046293166243217
327.1680468750589,0.00015803868923735292
327.36802734380893,0.0001974295727555457
327.56800781255896,5.100139467918542e-05
327.767988281309,7.189167965601707e-05
327.967968750059,8.401041291450679e-05
328.1679492188091,0.00021086681883934644
328.3679296875591,0.0001483213319721997
328.56791015630915,0.00012981139657725456
328.7678906250592,0.00022549607667933882
328.9678710938092,0.00014491620668325027
329.16785156255924,0.000235304423850318
329.3678320313093,0.00018499564300567317
329.56781250005935,9.874584156949654e-05
329.7677929688094,0.0001689751798073336
329.9677734375594,7.99417235212892e-05
330.16775390630943,4.818726795415408e-05
330.36773437505946,0.00011204215324108244
330.5677148438095,4.4759192552309475e-05
330.76769531255957,0.00011598437176190051
330.9676757813096,0.00013974856015901103
331.1676562500596,4.980468248174568e-05
331.36763671880965,0.00016391454991202605
331.5676171875597,0.00012122649814089437
331.7675976563097,5.0480268729078586e-05
331.9675781250598,8.689940530341868e-05
332.1675585938098,2.8959106293062424e-05
332.36753906255984,0.00013673796558217964
332.56751953130987,0.00020941244631952438
332.7675000000599,8.271838683157464e-05
332.9674804688099,1.0892023816017243e-05
333.16746093755995,6.21573167857708e-05
333.36744140631004,0.00017602674922498235
333.56742187506006,0.00016084636696319106
333.7674023438101,0.00012910010973880124
333.9673828125601,0.00015078624670772625
334.16736328131014,7.901110025187696e-05
334.3673437500602,0.00011691190381974873
334.56732421881026,0.00010484303788180938
334.7673046875603,0.00012296743489477243
334.9672851563103,0.00015343562857030024
335.16726562506034,9.710391208435435e-05
335.36724609381037,0.00019194436532022355
335.5672265625604,0.0001469292882144463
335.7672070313104,0.0002013606137873105
335.9671875000605,5.121534855741483e-05
336.16716796881053,9.53923548626885e-05
336.36714843756056,0.0002975676025817316
336.5671289063106,0.00012730225807047835
336.7671093750606,0.00013429360369506522
336.96708984381064,0.00019270479000447953
337.16707031256067,6.966443129888364e-05
337.36705078131075,0.00015260626100341496
337.5670312500608,0.00018377403303768413
337.7670117188108,7.84801459020801e-05
337.96699218756083,0.00019227646617154864
338.16697265631086,8.120583269883734e-05
338.3669531250609,0.00016070021727956885
338.566933593811,5.498429760009279e-05
338.766914062561,0.00011355194011399392
338.966894531311,0.00017692818255778144
339.16687500006105,0.0001411757541490212
339.3668554688111,0.00012944438042706847
339.5668359375611,1.872230218718687e-05
339.76681640631114,0.00011151178074749291
339.9667968750612,0.00014710500434054967
340.16677734381125,0.00013549553660067358
340.3667578125613,0.00012996626280240613
340.5667382813113,7.121694526565938e-05
340.76671875006133,3.0415841758233618e-05
340.96669921881136,0.0001167347647937202
341.16667968756144,0.00019536515147077784
341.36666015631147,0.00011851691280125006
341.5666406250615,8.47072906864533e-06
341.7666210938115,0.000113995998835397
341.96660156256155,0.00014164895582328938
342.1665820313116,0.0001746859917580267
342.3665625000616,0.00019345275884431612
342.5665429688117,0.00021114085236950128
342.7665234375617,0.0002098313422536319
342.96650390631174,9.319570349763544e-05
343.16648437506177,0.00013566875549830368
343.3664648438118,9.82625825733566e-05
343.5664453125618,2.4462846560606972e-05
343.7664257813119,0.0002079520947116049
343.96640625006194,0.0001761686003607802
344.16638671881196,0.00013222136913375963
344.366367187562,6.131551180819383e-05
344.566347656312,8.941066974736061e-05
344.76632812506205,0.00020557195117909142
344.9663085938121,0.0001444759738904551
345.16628906256216,7.121648173493484e-05
345.3662695313122,0.00013809824481234598
345.5662500000622,8.041140116167819e-05
345.76623046881224,0.0001635517249680389
345.96621093756227,0.0001781825103819584
346.1661914063123,0.0002910964142343508
346.3661718750624,9.871685342434174e-05
346.5661523438124,0.0002202605450196506
346.76613281256243,7.558741859880005e-05
346.96611328131246,0.00013114508816591643
347.1660937500625,6.541522866788765e-05
347.3660742188125,3.97572002976474e-05
347.56605468756254,8.444152621572922e-05
347.7660351563126,0.00019492294244622833
347.96601562506265,0.0001396347609591987
348.1659960938127,0.00011526094981008885
348.3659765625627,0.00011249689051470481
348.56595703131273,8.363506288544687e-05
348.76593750006276,0.0001531952223189506
348.96591796881285,0.00021551720245106075
349.1658984375629,7.845956641858572e-05
349.3658789063129,4.962705732695274e-05
349.5658593750629,0.0001318276486054128
349.76583984381296,0.00011476976131682569
349.965820312563,0.00010911070199857707
350.165800781313,9.80132446851189e-05
350.3657812500631,0.00011196657445473911
350.5657617188131,0.00012480442574984202
350.76574218756315,1.0141398834862517e-05
350.9657226563132,0.00017934042239844839
351.1657031250632,0.00017582386482608
351.36568359381323,0.00017653691418467033
351.5656640625633,8.824350444713728e-05
351.76564453131334,0.00024279408954921435
351.96562500006337,0.00019220491691773962
352.1656054688134,6.34186429742959e-05
352.3655859375634,7.355177216529578e-05
352.56556640631345,6.233050742482551e-05
352.7655468750635,9.782934019201722e-05
352.96552734381356,0.00013410075235392185
353.1655078125636,0.0001198446056883937
353.3654882813136,3.337011908301787e-05
353.56546875006364,0.00016932034037668844
353.76544921881367,1.8290755770525355e-05
353.9654296875637,6.767268650939629e-05
354.1654101563138,1.7732415942359588e-05
354.3653906250638,0.00019690735941370373
354.56537109381384,8.613495103268668e-05
354.76535156256386,7.316665035836351e-05
354.9653320313139,3.957272109197349e-05
355.1653125000639,0.00011134647771846166
355.36529296881395,8.278182369172224e-05
355.56527343756403,0.00011558021450026498
355.76525390631406,0.00018556315549605313
355.9652343750641,0.0002589932525311267
356.1652148438141,0.00019129860772585004
356.36519531256414,0.00017652341881657584
356.56517578131417,0.0002574257130362069
356.76515625006425,0.0001451393611955309
356.9651367188143,0.00010836221372568147
357.1651171875643,0.00012491356182007973
357.36509765631433,8.492121991118487e-05
357.56507812506436,0.00014842203353388912
357.7650585938144,0.00012709524827008234
357.9650390625644,3.811437305685284e-05
358.1650195313145,6.979139320744831e-05
358.3650000000645,0.0002917833984829487
358.56498046881455,4.256973649963077e-05
358.7649609375646,0.00011499296434058216
358.9649414063146,0.00013096576879328064
359.16492187506464,6.861875457743438e-05
359.3649023438147,0.00016413632485587303
359.56488281256475,8.647446776138425e-05
359.7648632813148,8.3350928099751e-05
359.9648437500648,3.598124645305888e-05
360.16482421881483,4.973056619160559e-05
360.36480468756486,0.00017379646218715567
360.5647851563149,0.00016363633607759828
360.76476562506497,0.0001301797347768129
360.964746093815,0.00019796591447906794
361.164726562565,0.000139745727780493
361.36470703131505,0.00010198566447732003
361.5646875000651,0.00013808811237226462
361.7646679688151,0.00015525788829566303
361.9646484375652,7.668199992756671e-05
362.1646289063152,7.416609350214282e-05
362.36460937506524,0.00024914683232905773
362.56458984381527,9.9395583630555e-05
362.7645703125653,9.814501273487348e-05
362.9645507813153,8.043362037255493e-05
363.16453125006535,4.33494574740359e-05
363.36451171881544,6.175154097547579e-05
363.56449218756546,0.0001110799289990109
363.7644726563155,0.0001240263409462294
363.9644531250655,3.845485440137865e-05
364.16443359381555,0.00010465134105708731
364.3644140625656,3.205942717389983e-05
364.56439453131566,0.00011073601027788236
364.7643750000657,6.0058074839564355e-05
364.9643554688157,0.0002271361438188493
365.16433593756574,0.00010246709156307211
365.36431640631577,2.639124242419288e-05
365.5642968750658,0.0001497260879229865
365.7642773438158,0.0001236872810973914
365.9642578125659,1.4456045475689427e-05
366.16423828131593,3.298337092198434e-05
366.36421875006596,1.939925400176049e-05
366.564199218816,7.297239522095228e-05
366.764179687566,0.00011636027238884175
366.96416015631604,0.00011637332766620806
367.16414062506607,0.00015873653081414224
367.36412109381615,6.0530717522822914e-05
367.5641015625662,9.883289937803436e-05
367.7640820313162,0.00012483335536173594
367.96406250006623,0.00012099674734612434
368.16404296881626,0.0001406116816112872
368.3640234375663,4.789459440121994e-05
368.5640039063164,7.940028281162317e-05
368.7639843750664,9.12824270100996e-05
368.9639648438164,8.675960829653589e-05
369.16394531256645,6.272565838140547e-05
369.3639257813165,0.0001355451496165814
369.5639062500665,0.00011116344000479794
369.76388671881654,0.00029298549514085773
369.9638671875666,0.00010027380155457847
370.16384765631665,0.00015084817555260224
370.3638281250667,0.00012249864617475326
370.5638085938167,7.533209054015314e-05
370.76378906256673,0.00011755837275870384
370.96376953131676,0.00016176064917575495
371.16375000006684,0.00013538257176831428
371.36373046881687,0.0001820636734119088
371.5637109375669,6.443014247032543e-05
371.7636914063169,0.00021309153964421386
371.96367187506695,6.847139783332172e-05
372.163652343817,0.0001677381540062341
372.363632812567,8.526621608807976e-05
372.5636132813171,0.00026313249633793284
372.7635937500671,4.274338788945755e-05
372.96357421881714,0.00013484350531184838
373.16355468756717,0.0001591299290093124
373.3635351563172,4.821736756243153e-05
373.5635156250672,0.00014961762361820374
373.7634960938173,0.00014900588928975483
373.96347656256734,0.00012675939675762705
374.16345703131736,0.0001022883722290867
374.3634375000674,7.853704401154678e-05
374.5634179688174,7.455093233298453e-05
374.76339843756745,4.6232736978005465e-05
374.9633789063175,0.00010105929272267441
375.16335937506756,0.00012117760808921879
375.3633398438176,2.6791876382678933e-05
375.5633203125676,0.00021688200637337446
375.76330078131764,5.273397478729283e-05
375.96328125006767,0.00014737287026401094
376.1632617188177,0.00010402370164240209
376.3632421875678,5.191462526108462e-05
376.5632226563178,0.00010165856045114019
376.76320312506783,6.0062260379920345e-05
376.96318359381786,9.500467343856738e-05
377.1631640625679,0.00018688026513118944
377.3631445313179,5.9586593551142855e-05
377.56312500006794,0.00012824996990041927
377.763105468818,1.9631925144393052e-05
377.96308593756805,9.395482073821853e-05
378.1630664063181,0.00014558718964532595
378.3630468750681,6.114880179228356e-05
378.56302734381813,8.016460893231466e-05
378.76300781256816,0.00013489122441129783
378.96298828131825,0.0001613500855363509
379.1629687500683,9.617047265517542e-05
379.3629492188183,9.403358961346653e-05
379.5629296875683,3.930173060534322e-05
379.76291015631836,4.604950421158494e-05
379.9628906250684,0.00016065818512837093
380.1628710938184,0.000180705379156964
380.3628515625685,0.00010677548647060466
380.5628320313185,1.1713751717668535e-05
380.76281250006855,4.881572521788551e-05
380.9627929688186,0.00010484806331741129
381.1627734375686,0.00015693727826102274
381.36275390631863,0.00010422434451336147
381.5627343750687,3.328385561778772e-05
381.76271484381874,0.00021391052148533827
381.96269531256877,8.017738122672616e-05
382.1626757813188,9.798015848708304e-05
382.3626562500688,0.00018302692271945911
382.56263671881885,8.810769150457704e-05
382.7626171875689,0.0001625185091255966
382.96259765631896,8.567490618495367e-05
383.162578125069,0.00014465364478287345
383.362558593819,0.0001783596782573279
383.56253906256904,0.00022398043878966653
383.76251953131907,0.00015695243874617264
383.9625000000691,0.00013488465317538947
384.1624804688192,8.084748074688194e-05
384.3624609375692,0.00019562643495469462
384.56244140631924,0.00016332267129695493
384.76242187506926,2.6986099040400598e-05
384.9624023438193,0.0001446536251317222
385.1623828125693,0.00010696671599329965
385.36236328131935,0.00011996091686255694
385.56234375006943,0.0001947491692391786
385.76232421881946,0.00021679679281568789
385.9623046875695,8.129746686952148e-05
386.1622851563195,0.00019686263210450872
386.36226562506954,0.00010178213166192204
386.56224609381957,0.00010231380900736434
386.76222656256965,0.00024123450017459868
386.9622070313197,0.00010915049455419799
387.1621875000697,5.193664963568796e-05
387.36216796881973,0.00018186479629069037
387.56214843756976,6.776776905799917e-05
387.7621289063198,4.313651124467672e-05
387.9621093750698,8.21532980418684e-05
388.1620898438199,0.00010261284625581332
388.3620703125699,1.9186911641278806e-05
388.56205078131995,9.246377321352703e-05
388.76203125007,2.73051936669561e-05
388.96201171882,8.56946377437842e-05
389.16199218757004,0.00014694298445746916
389.3619726563201,0.0002489211620890206
389.56195312507015,5.8136787336020315e-05
389.7619335938202,2.69666131864227e-05
389.9619140625702,0.00013199149157021412
390.16189453132023,5.4518283381705426e-05
390.36187500007026,0.00013283251725668466
390.5618554688203,9.736165657714795e-05
390.76183593757037,9.102774948420456e-05
390.9618164063204,7.965683992540317e-05
391.1617968750704,2.719728993546398e-05
391.36177734382045,3.805614001912328e-05
391.5617578125705,8.102773884865567e-05
391.7617382813205,0.00016671055081525778
391.9617187500706,0.00010628406256211654
392.1616992188206,7.76986099156416e-05
392.36167968757064,0.00010778050920158609
392.56166015632067,8.060550760222088e-05
392.7616406250707,6.46854164189911e-05
392.9616210938207,2.253803259967807e-05
393.16160156257075,0.00010468274100229952
393.36158203132084,6.837784708792719e-05
393.56156250007086,0.0002069910253956535
393.7615429688209,0.00013049925923505225
393.9615234375709,0.00013014705820846192
394.16150390632095,0.00017903566641958965
394.361484375071,0.00018217081829021418
394.56146484382106,6.355739714031722e-05
394.7614453125711,0.0001310120068642549
394.9614257813211,9.672330017162119e-05
395.16140625007114,5.407743505683757e-05
395.36138671882117,0.00012502560818450714
395.5613671875712,5.635949263205584e-05
395.7613476563212,9.296165020100605e-05
395.9613281250713,5.5993312337422e-06
396.16130859382133,4.922702496026851e-05
396.36128906257136,0.00018019757253437055
396.5612695313214,4.587553391647964e-05
396.7612500000714,0.00014300927224423707
396.96123046882144,0.0001778289371631696
397.16121093757147,0.00016723478634447515
397.36119140632155,0.00015751084977941153
397.5611718750716,9.061395527345175e-05
397.7611523438216,0.00011948061557361041
397.96113281257163,0.00010528881831982682
398.16111328132166,3.757350662435575e-05
398.3610937500717,4.84215688374559e-05
398.5610742188218,0.00011636398258734933
398.7610546875718,8.568124852300705e-06
398.9610351563218,9.300042400533683e-05
399.16101562507185,8.602114886983044e-05
399.3609960938219,6.60793537545581e-05
399.5609765625719,0.00019626780751631434
399.76095703132194,9.326832992856914e-05
399.960937500072,5.5499340217792156e-05
400.16091796882205,9.430377847904168e-05
400.3608984375721,8.056919869007594e-05
400.5608789063221,0.0001474986611931439
400.76085937507213,0.00011705797307605847
400.96083984382216,5.754795735953588e-05
401.16082031257224,0.00021669938439874633
401.36080078132227,6.511399007327384e-05
401.5607812500723,0.00011776063380891926
401.7607617188223,0.00010992118837375534
401.96074218757235,0.0002030128239769221
402.1607226563224,9.312235500570945e-05
402.3607031250724,0.00022085947776922661
402.5606835938225,0.00014555417393395217
402.7606640625725,7.289357970767219e-05
402.96064453132254,4.649431807222436e-05
403.16062500007257,0.00012757757181082124
403.3606054688226,0.00010801479132740234
403.5605859375726,0.00018496099842394732
403.7605664063227,0.00013868935858932035
403.96054687507274,6.788169363554742e-05
404.16052734382276,0.00017997515746146387
404.3605078125728,0.00016011417190416388
404.5604882813228,6.719973017463058e-05
404.76046875007285,8.578137208132269e-05
404.9604492188229,7.059950493095597e-05
405.16042968757296,0.00013290597660390552
405.360410156323,0.00016257358071751824
405.560390625073,9.286490531178426e-05
405.76037109382304,0.00013180375840669817
405.96035156257307,0.000171664598678909
406.1603320313231,0.000133659016353091
406.3603125000732,8.334540476321724e-05
406.5602929688232,3.6754024935371836e-05
406.76027343757323,0.00016669633939715006
406.96025390632326,0.0001943008896952011
407.1602343750733,0.00011011998532162626
407.3602148438233,0.00011202452649401716
407.56019531257334,0.0001392013501779947
407.7601757813234,0.00013564066534556496
407.96015625007345,0.00016499866473567283
408.1601367188235,0.00011219160733445613
408.3601171875735,0.00019454398234464233
408.56009765632353,7.666048149246881e-05
408.76007812507356,0.00016410349781398404
408.96005859382365,0.00011755314874104162
409.1600390625737,4.0544618467294274e-05
409.3600195313237,0.00010416668394689374
409.5600000000737,8.723844189468956e-05
409.75998046882376,9.927938710422782e-05
409.9599609375738,0.00014706185882466008
410.1599414063238,9.127235672399723e-05
410.3599218750739,0.0001698820563781661
410.5599023438239,4.158779903415519e-05
410.75988281257395,7.12066630464001e-05
410.959863281324,0.00015524950391303455
411.159843750074,0.00010056607472172818
411.35982421882403,2.8097278638221754e-05
411.5598046875741,7.508210581392371e-05
411.75978515632414,4.514442335744703e-05
411.95976562507417,5.741174797896458e-05
412.1597460938242,6.597846403801342e-05
412.3597265625742,7.189663179117696e-05
412.55970703132425,0.00026765422809610156
412.7596875000743,0.00016594626976029083
412.95966796882436,4.6159097200923244e-05
413.1596484375744,7.589675250798955e-05
413.3596289063244,0.00010986399942240294
413.55960937507444,9.374494459828452e-05
413.7595898438245,7.751859988771314e-05
413.9595703125745,5.3954519596650284e-05
414.1595507813246,0.00015409371930257367
414.3595312500746,6.149911887546584e-05
414.55951171882464,9.642451710688078e-05
414.75949218757466,0.0001648010564664444
414.9594726563247,0.00011399456157257207
415.1594531250747,5.7213133730264874e-05
415.35943359382475,9.882477799579696e-05
415.55941406257483,9.799944634085e-05
415.75939453132486,4.3934380716015764e-05
415.9593750000749,8.785436158345334e-05
416.1593554688249,5.5316532463787414e-05
416.35933593757494,1.8577233098573638e-05
416.55931640632497,8.290340871484475e-05
416.75929687507505,0.00012035694928292187
416.9592773438251,0.00015844255046531088
417.1592578125751,5.192153964694224e-05
417.35923828132513,5.0602063189119276e-05
417.55921875007516,0.00010605037231884104
417.7591992188252,1.7708175042332914e-05
417.9591796875752,4.0601371671615996e-05
418.1591601563253,3.904759211746599e-05
418.3591406250753,8.427824474089096e-05
418.55912109382535,4.700916024517774e-05
418.7591015625754,6.285931801613718e-05
418.9590820313254,7.094114071134358e-05
419.15906250007544,4.476609999756655e-05
419.3590429688255,6.566038972262481e-05
419.55902343757555,2.925102600590066e-05
419.7590039063256,6.007947632213345e-05
419.9589843750756,7.456418784553862e-05
420.15896484382563,5.2767542703018014e-05
420.35894531257566,8.784260804162679e-05
420.5589257813257,3.928453450323625e-05
420.75890625007577,2.864875926982239e-05
420.9588867188258,6.420812404389456e-05
421.1588671875758,9.861699593430577e-05
421.35884765632585,4.917928433993234e-05
421.5588281250759,3.8286416536565364e-05
421.7588085938259,0.00013787675409486844
421.958789062576,0.00011013764521300467
422.158769531326,8.227619120740108e-05
422.35875000007604,6.347082412168303e-05
422.55873046882607,0.00010787360008708868
422.7587109375761,0.00017962327404095232
422.9586914063261,0.0001127646528169193
423.15867187507615,2.25785179885765e-05
423.35865234382624,3.6369339709404673e-05
423.55863281257626,7.993748008726355e-05
423.7586132813263,0.0001860419648587555
423.9585937500763,4.874778975154805e-05
424.15857421882635,0.0001705582797096191
424.3585546875764,0.00010895151382116604
424.5585351563264,9.206025642077933e-05
424.7585156250765,3.729362442289183e-05
424.9584960938265,7.001058438717273e-05
425.15847656257654,1.6104012221156785e-05
425.35845703132657,0.00017634018099164776
425.5584375000766,6.033542401477903e-05
425.7584179688266,0.00013262347611956064
425.9583984375767,0.00010903651561402594
426.15837890632673,8.354290935080964e-05
426.35835937507676,0.0001484744680273404
426.5583398438268,2.9763227363668765e-05
426.7583203125768,3.6945563676831996e-05
426.95830078132684,4.183874731299642e-05
427.15828125007687,9.649192502311741e-05
427.35826171882695,0.00012362211935028076
427.558242187577,5.457186122743383e-05
427.758222656327,4.5333318452690156e-05
427.95820312507703,6.177678565069638e-05
428.15818359382706,3.2858440136610354e-05
428.3581640625771,4.742500797891513e-05
428.5581445313272,0.00018773579900143594
428.7581250000772,8.725794397781408e-05
428.9581054688272,9.154926882315482e-05
429.15808593757725,8.166761086823944e-05
429.3580664063273,0.00010506862720159195
429.5580468750773,0.00010125823478362288
429.75802734382734,4.423669672009127e-05
429.9580078125774,0.00011730378936297779
430.15798828132745,3.2934242309701384e-05
430.3579687500775,7.3556251000913e-05
430.5579492188275,1.3700913745765134e-05
430.75792968757753,1.2704392967221806e-05
430.95791015632756,2.18680021227615e-05
431.15789062507764,0.00010459115684994974
431.35787109382767,2.337395658717859e-05
431.5578515625777,5.6875872464887107e-05
431.7578320313277,7.892673382756398e-05
431.95781250007775,7.198836507563775e-05
432.1577929688278,0.00014151478380834554
432.3577734375778,4.143266683938619e-05
432.5577539063279,0.00020409962284951265
432.7577343750779,9.48249567700948e-05
432.95771484382794,3.6769127200502443e-05
433.15769531257797,4.6590240952968704e-05
433.357675781328,0.00013374875775696709
433.557656250078,0.00010143676800989922
433.7576367188281,7.184314315964332e-05
433.95761718757814,5.612589355815229e-05
434.15759765632816,0.0001589775681178294
434.3575781250782,0.00010360397146910802
434.5575585938282,4.425948366217591e-05
434.75753906257825,0.00010401229214838288
434.9575195313283,0.00010099654685670007
435.15750000007836,6.907986392540235e-05
435.3574804688284,0.00010840465044030803
435.5574609375784,6.292029628774763e-05
435.75744140632844,6.099207074693196e-05
435.95742187507847,0.00016632060469720035
436.1574023438285,7.398322306810114e-05
436.3573828125786,0.00016658563449644057
436.5573632813286,8.193807357533677e-05
436.75734375007863,1.6767032864004704e-05
436.95732421882866,8.460881809232316e-05
437.1573046875787,0.00010857325136163958
437.3572851563287,0.00014197163852634021
437.55726562507874,4.779145651980675e-06
437.7572460938288,9.038640802148646e-05
437.95722656257885,6.404902431680826e-05
438.1572070313289,8.346535476180781e-05
438.3571875000789,0.000150105317481583
438.55716796882894,0.00014156410168697034
438.75714843757896,5.089631641407802e-05
438.95712890632905,7.302332062677945e-05
439.1571093750791,0.00012095260168646907
439.3570898438291,7.222129677083595e-05
439.5570703125791,3.1745917322768684e-05
439.75705078132916,0.00013408237604426308
439.9570312500792,8.686083809593214e-05
440.1570117188292,6.76283940603724e-05
440.3569921875793,0.00010442100691432073
440.5569726563293,2.8983807350647365e-05
440.75695312507935,4.035867036606834e-05
440.9569335938294,1.5312799740855386e-05
441.1569140625794,1.978415192114444e-05
441.35689453132943,7.31108581610461e-05
441.5568750000795,3.478301189757174e-05
441.75685546882954,4.842764822646431e-05
441.95683593757957,8.61348755474897e-05
442.1568164063296,0.00010255364729377426
442.3567968750796,3.2507333531638554e-06
442.55677734382965,7.105525936725558e-05
442.7567578125797,2.2142807208688244e-05
442.95673828132976,0.000117130241373039
443.1567187500798,9.249777156718518e-05
443.3566992188298,9.344931345051119e-05
443.55667968757984,8.786378727852526e-05
443.7566601563299,9.500527365271358e-05
443.9566406250799,0.0001198748230262946
444.15662109383,0.00012093149185947487
444.35660156258,7.452129788602665e-05
444.55658203133004,2.3916531552194966e-05
444.75656250008007,8.415963936604415e-05
444.9565429688301,6.74510933687455e-05
445.1565234375801,8.36850777951466e-05
445.35650390633015,7.905417183518274e-05
445.55648437508023,4.0895047668946224e-05
445.75646484383026,1.54333061917019e-05
445.9564453125803,7.515884701715756e-05
446.1564257813303,3.6623905831474355e-05
446.35640625008034,6.2147339416877e-05
446.55638671883037,4.654473754588591e-05
446.75636718758045,6.277349533321737e-05
446.9563476563305,8.222974687860691e-05
447.1563281250805,8.052706748273619e-05
447.35630859383053,3.5339767535541914e-05
447.55628906258056,6.0663321542389995e-05
447.7562695313306,6.720172578378092e-05
447.9562500000806,3.499132830567743e-05
448.1562304688307,5.197210023051752e-05
448.3562109375807,3.194233313493656e-05
448.55619140633075,2.4459002205442166e-05
448.7561718750808,2.9927676813448622e-05
448.9561523438308,6.923303645884094e-05
449.15613281258084,5.629061093097368e-05
449.3561132813309,9.427172715060276e-05
449.55609375008095,5.7133718869801546e-05
449.756074218831,4.395051871141926e-05
449.956054687581,4.75282757382497e-05
450.15603515633103,4.3217098911971526e-05
450.35601562508106,5.2194045504722923e-05
450.5559960938311,0.00011191797177127505
450.75597656258117,8.139873365401002e-05
450.9559570313312,0.00010342786977095335
451.1559375000812,0.0001337191605500006
451.35591796883125,4.515491752572376e-05
451.5558984375813,5.5164233450391135e-05
451.7558789063313,0.00011956990928082173
451.9558593750814,7.52620299652578e-05
452.1558398438314,8.058798235236045e-05
452.35582031258144,5.497221688445251e-05
452.55580078133147,2.5032079014548963e-06
452.7557812500815,9.498893438344172e-05
452.9557617188315,4.614753758553252e-05
453.15574218758155,9.934452687330699e-05
453.35572265633164,0.00012982023450971598
453.55570312508166,4.390250142655846e-05
453.7556835938317,2.9725517044459152e-05
453.9556640625817,3.175644685420565e-05
454.15564453133175,5.735491947997096e-05
454.3556250000818,5.863014173757617e-05
454.5556054688318,3.9316735272246166e-05
454.7555859375819,1.1938494876061191e-05
454.9555664063319,1.5525209418611848e-05
455.15554687508194,9.961309733153806e-05
455.35552734383197,7.864439309169891e-05
455.555507812582,2.3060401680652894e-05
455.755488281332,5.252470048129365e-05
455.9554687500821,9.111281044904905e-06
456.15544921883213,2.9900275645472053e-05
456.35542968758216,6.281312023410228e-05
456.5554101563322,1.8818733903618374e-05
456.7553906250822,6.205194678899122e-05
456.95537109383224,5.2472550723793515e-05
457.15535156258227,4.1900730062561534e-05
457.35533203133235,5.8789799394690805e-05
457.5553125000824,3.29681770934763e-05
457.7552929688324,9.014992357624342e-05
457.95527343758243,7.294001226259093e-05
458.15525390633246,4.3037438478556545e-05
458.3552343750825,3.880601848359824e-05
458.5552148438326,2.037797087355451e-05
458.7551953125826,6.571343366909972e-05
458.9551757813326,6.729547365228116e-05
459.15515625008265,1.9220772893794425e-05
459.3551367188327,5.480506212267912e-05
459.5551171875827,9.120495612462913e-05
459.75509765633274,6.123594299250256e-05
459.9550781250828,4.6522405615276324e-05
460.15505859383285,5.6770998677091145e-05
460.3550390625829,5.5690983050392713e-05
460.5550195313329,8.891009998546129e-05
460.75500000008293,9.478402470175116e-05
460.95498046883296,7.003383770369291e-05
461.15496093758304,8.825613095692275e-05
461.35494140633307,7.081067190058075e-05
461.5549218750831,7.411698405538905e-05
461.7549023438331,5.7040941217361634e-05
461.95488281258315,5.6595615285535706e-05
462.1548632813332,3.944118447133242e-05
462.3548437500832,4.7579722080830994e-05
462.5548242188333,2.9205089310150098e-05
462.7548046875833,4.2139878200173766e-05
462.95478515633334,3.401445910109405e-05
463.15476562508337,4.377747950701157e-05
463.3547460938334,3.363982107670245e-05
463.5547265625834,3.3176960178743306e-05
463.7547070313335,4.1328686251988e-06
463.95468750008354,7.075997799612556e-05
464.15466796883356,4.36038177898287e-05
464.3546484375836,3.8396864097656935e-05
464.5546289063336,9.057806014432305e-05
464.75460937508365,9.911326616886107e-06
464.9545898438337,1.0918058815546368e-05
465.15457031258376,5.809514403053557e-05
465.3545507813338,8.513712593630553e-05
465.5545312500838,8.048685419607595e-05
465.75451171883384,4.230931199058796e-05
465.95449218758387,2.1246525521681513e-05
466.1544726563339,2.8648480257291998e-05
466.354453125084,2.2533544754174993e-05
466.554433593834,4.8609283535906594e-05
466.75441406258403,3.212725169969986e-05
466.95439453133406,4.65151389134028e-05
467.1543750000841,5.121150252474457e-05
467.3543554688341,5.834536906913998e-05
467.55433593758414,5.648439049026787e-05
467.7543164063342,1.5830616690107406e-05
467.95429687508425,6.499320276279594e-05
468.1542773438343,4.8200429752823455e-05
468.3542578125843,4.784532407232456e-05
468.55423828133434,4.8196026178445856e-05
468.75421875008436,4.082305122430377e-05
468.95419921883445,4.0817695073329316e-05
469.1541796875845,1.680168485451744e-05
469.3541601563345,4.810995815337505e-05
469.55414062508453,5.6205366295086454e-05
469.75412109383456,6.301508981697251e-05
469.9541015625846,2.667012936178157e-05
470.1540820313346,4.685544668842429e-05
470.3540625000847,4.045675716077905e-05
470.5540429688347,6.610644559919954e-05
470.75402343758475,5.1827824018057365e-05
470.9540039063348,7.035566581278022e-05
471.1539843750848,3.8165335817133485e-05
471.35396484383483,1.847273926953708e-05
471.5539453125849,4.651894833531619e-05
471.75392578133494,7.178941019292757e-05
471.95390625008497,8.110191514361517e-05
472.153886718835,5.9991501219655775e-05
472.353867187585,7.629150075812774e-06
472.55384765633505,1.4452624763517303e-05
472.7538281250851,2.8335969992647147e-05
472.95380859383516,5.2230864199327754e-05
473.1537890625852,2.369884107723719e-05
473.3537695313352,1.4327849173140144e-05
473.55375000008524,5.8667550736030395e-06
473.7537304688353,5.4451271188673715e-05
473.9537109375853,2.1486321690822124e-05
474.1536914063354,2.644026007517761e-05
474.3536718750854,2.0311137380836134e-05
474.55365234383544,4.840153698002391e-05
474.75363281258547,2.3379086016990196e-05
474.9536132813355,1.9855325229128776e-05
475.1535937500855,6.604730487355765e-05
475.35357421883555,3.0178884935292628e-05
475.55355468758563,2.2438636028818867e-05
475.75353515633566,3.63993064581638e-05
475.9535156250857,4.706771964083032e-05
476.1534960938357,2.394654076496218e-05
476.35347656258574,4.8841851091209914e-05
476.55345703133577,2.8691052306673163e-05
476.75343750008585,2.5416904015136125e-05
476.9534179688359,4.5397942513668375e-05
477.1533984375859,3.275176513700856e-05
477.35337890633593,3.286154110608262e-05
477.55335937508596,3.128904083979556e-05
477.753339843836,5.1889735706228744e-05
477.953320312586,3.246383579800489e-05
478.1533007813361,2.5160386394935714e-05
478.3532812500861,5.1983187198313925e-05
478.55326171883615,3.388831227649303e-05
478.7532421875862,2.2272442593970188e-05
478.9532226563362,3.0367439007516066e-05
479.15320312508624,2.9882911359562523e-05
479.3531835938363,2.841041127283326e-05
479.55316406258635,1.1706259843356744e-05
479.7531445313364,1.1843570470204726e-05
479.9531250000864,4.2338731530004114e-05
480.15310546883643,2.34944870852621e-05
480.35308593758646,1.797168220223949e-05
480.5530664063365,5.159891069302818e-05
480.75304687508657,3.9649983383160444e-05
480.9530273438366,1.6715572794745203e-05
481.1530078125866,1.7901047276233113e-05
481.35298828133665,4.3181185401884036e-05
481.5529687500867,5.201743337370739e-05
481.7529492188367,1.694782254258557e-05
481.9529296875868,1.5156203845660671e-05
482.1529101563368,4.32790016310797e-05
482.35289062508684,3.187099866269069e-05
482.55287109383687,1.2809784184482636e-05
482.7528515625869,4.252976479757278e-05
482.9528320313369,2.521606409461107e-05
483.15281250008695,1.8038703436485553e-05
483.35279296883704,3.606901067419039e-05
483.55277343758706,3.0968444296605446e-05
483.7527539063371,2.870180858025907e-05
483.9527343750871,1.6235297676837755e-05
484.15271484383715,1.4032713296474907e-05
484.3526953125872,7.4688749259130805e-06
484.5526757813372,2.2562389631215474e-05
484.7526562500873,3.2261245275669616e-05
484.9526367188373,1.9383550327458738e-05
485.15261718758734,5.344412580962387e-06
485.35259765633737,2.3992026252328263e-05
485.5525781250874,1.466502583187617e-05
485.7525585938374,1.8922008076415658e-05
485.9525390625875,5.082931875784238e-05
486.15251953133753,2.5401662476784133e-05
486.35250000008756,4.479077317171213e-05
486.5524804688376,2.300423545340456e-05
486.7524609375876,2.878989914986648e-05
486.95244140633764,1.8593520663392737e-05
487.15242187508767,3.463563093815617e-05
487.35240234383775,4.030580121411035e-05
487.5523828125878,4.378279531851812e-06
487.7523632813378,2.327927410730142e-05
487.95234375008783,3.8252881609252634e-05
488.15232421883786,3.591380535331869e-05
488.3523046875879,2.4844570228294238e-05
488.552285156338,5.2550190374553466e-05
488.752265625088,1.9792345112907025e-05
488.952246093838,1.6039217919513137e-05
489.15222656258806,8.97711430158482e-06
489.3522070313381,3.900216360317184e-05
489.5521875000881,2.647647473341051e-05
489.75216796883814,3.7288412650320986e-06
489.9521484375882,2.680338178937434e-05
490.15212890633825,2.0961799632553702e-05
490.3521093750883,2.0765348486329896e-05
490.5520898438383,2.2322774968309506e-05
490.75207031258833,1.8624142173080227e-05
490.95205078133836,8.541620668621472e-05
491.15203125008844,2.170130610498978e-05
491.35201171883847,2.3725350308440087e-05
491.5519921875885,1.2863040766725138e-05
491.7519726563385,3.9584383226343934e-05
491.95195312508855,1.6839513933852438e-05
492.1519335938386,8.802614616663106e-06
492.3519140625886,2.3604178570889144e-05
492.5518945313387,3.6143648431521134e-05
492.7518750000887,1.5217097133362606e-05
492.95185546883874,1.3512472607765274e-05
493.15183593758877,7.445797437936577e-06
493.3518164063388,3.261580408401407e-05
493.5517968750888,1.2443494048884423e-05
493.7517773438389,2.5165433894724217e-05
493.95175781258894,3.1295533173086804e-06
494.15173828133896,2.2152780218956903e-05
494.351718750089,7.2801853298149395e-06
494.551699218839,2.4920758924637e-05
494.75167968758905,1.228079486939496e-05
494.9516601563391,4.294800737808529e-06
495.15164062508916,2.8161292082058467e-05
495.3516210938392,3.545194732157963e-05
495.5516015625892,1.81556196376994e-05
495.75158203133924,2.042643209341759e-05
495.95156250008927,2.1375128477522313e-05
496.1515429688393,8.747071841813653e-06
496.3515234375894,1.665197100525251e-05
496.5515039063394,2.33300293915344e-05
496.75148437508943,2.984422061377725e-05
496.95146484383946,3.520531946222094e-06
497.1514453125895,6.799579262249859e-06
497.3514257813395,4.55779523879738e-05
497.55140625008954,7.321157023520221e-06
497.7513867188396,2.110099567213526e-05
497.95136718758965,1.6866993423559287e-05
498.1513476563397,2.254279201654267e-05
498.3513281250897,2.5833707296214197e-05
498.55130859383974,8.336886581230859e-06
498.75128906258976,6.547268381908117e-06
498.95126953133985,2.993068436797238e-05
499.1512500000899,1.5748583505623603e-05
499.3512304688399,1.8683524599798145e-05
499.55121093758993,2.9709259013039257e-05
499.75119140633996,5.8683099341052346e-06
499.95117187509,2.203094957742225e-05
500.15115234384,1.290265209774173e-05
500.3511328125901,7.147236841079614e-06
500.5511132813401,1.0538973118084799e-05
500.75109375009015,1.2222533684235938e-05
500.9510742188402,2.3973474375818235e-05
501.1510546875902,1.080457093995791e-05
501.35103515634023,1.5380664886405927e-05
501.5510156250903,3.143083750125502e-05
501.75099609384034,6.616038276453509e-06
501.95097656259037,7.466844579991723e-06
502.1509570313404,3.830720824941429e-05
502.3509375000904,2.147459942990443e-05
502.55091796884045,1.899632398399655e-05
502.7508984375905,1.4449330491037549e-05
502.95087890634056,2.281680690985535e-05
503.1508593750906,6.383029094381202e-06
503.3508398438406,2.6074423554600377e-05
503.55082031259064,1.4636497931320835e-05
503.7508007813407,2.0292233265694675e-05
503.9507812500907,3.4997250337130146e-05
504.1507617188408,1.6052998505244357e-05
504.3507421875908,2.9561638528201752e-05
504.55072265634084,2.650386572207191e-06
504.75070312509087,1.3159121119661908e-05
504.9506835938409,2.627630618551896e-06
505.1506640625909,7.855969386851249e-06
505.35064453134095,2.011514232532521e-05
505.55062500009103,1.0433234122758281e-05
505.75060546884106,1.0761530666895293e-05
505.9505859375911,2.2115455541607268e-05
506.1505664063411,1.7024680653734233e-05
506.35054687509114,2.9103227530631918e-05
506.55052734384117,8.218790073492401e-06
506.75050781259125,1.2603349150321217e-05
506.9504882813413,1.4029902324140276e-05
507.1504687500913,2.3671589263671885e-05
507.35044921884133,2.0564914090389913e-05
507.55042968759136,6.439584865622136e-06
507.7504101563414,1.6283492716279736e-05
507.9503906250914,8.480849268293154e-06
508.1503710938415,1.8344798301009357e-06
508.3503515625915,2.4369579042676004e-05
508.55033203134155,9.089041898576045e-06
508.7503125000916,9.005300689179113e-06
508.9502929688416,2.386650791861017e-05
509.15027343759164,4.37471332598426e-05
509.3502539063417,1.8661579262518428e-05
509.55023437509175,2.6487173462212407e-05
509.7502148438418,8.9111458672568e-06
509.9501953125918,2.636418739623083e-05
510.15017578134183,1.446087151184722e-05
510.35015625009186,1.887171290090689e-05
510.5501367188419,1.3654418586703141e-05
510.75011718759197,3.277501819855861e-05
510.950097656342,1.2396013258990407e-05
511.150078125092,1.9916457985898294e-05
511.35005859384205,1.578936480906857e-05
511.5500390625921,2.6883975582262846e-05
511.7500195313421,1.3518758733195387e-05
511.95000000009213,6.9437682439073345e-06
512.1499804688422,1.0940898616306775e-05
512.3499609375922,6.436915420561045e-06
512.5499414063422,6.197172023017049e-06
512.7499218750924,1.6209664091224757e-05
512.9499023438424,1.653811268287837e-05
513.1498828125924,1.4710001814846294e-05
513.3498632813424,7.394277333595016e-06
513.5498437500925,6.304540968136917e-06
513.7498242188425,1.2153520058479757e-05
513.9498046875925,1.8822107797576357e-05
514.1497851563425,1.9647466476474923e-05
514.3497656250926,6.4159796121879086e-06
514.5497460938426,2.004640389768157e-06
514.7497265625926,3.882540756418051e-06
514.9497070313427,8.476996551226781e-06
515.1496875000927,1.9965405488809972e-05
515.3496679688428,8.916825355593926e-06
515.5496484375929,2.0858806745715458e-05
515.7496289063429,1.0922888353822209e-05
515.9496093750929,1.920230205871983e-05
516.1495898438429,2.0625584423425398e-05
516.349570312593,1.7826539964046998e-05
516.549550781343,1.75736148992286e-05
516.749531250093,3.0415157086644107e-05
516.949511718843,1.528766469416737e-05
517.1494921875931,1.4365116188296972e-05
517.3494726563431,7.6250902486598525e-06
517.5494531250931,1.2776158539208404e-05
517.7494335938432,1.1892233265032782e-05
517.9494140625933,8.440603732653001e-06
518.1493945313433,2.044995889702477e-05
518.3493750000933,1.8943334849510578e-05
518.5493554688434,1.612121529527766e-05
518.7493359375934,2.674141912519525e-06
518.9493164063434,9.567239843867276e-06
519.1492968750935,2.1196612655376556e-06
519.3492773438435,1.865390384929124e-05
519.5492578125935,1.0880138625311074e-05
519.7492382813435,6.796119309260973e-07
519.9492187500936,1.8003619964421434e-05
520.1491992188436,5.546949371837444e-06
520.3491796875936,7.1336351565977145e-06
520.5491601563438,1.0955675595214742e-05
520.7491406250938,9.333767493617317e-06
520.9491210938438,9.849355732995029e-06
521.1491015625938,1.2910013728380051e-05
521.3490820313439,9.697995872210406e-06
521.5490625000939,1.0043600603223214e-05
521.7490429688439,1.2528777028460725e-05
521.949023437594,1.1241208685417338e-05
522.149003906344,9.984343029352703e-06
522.348984375094,1.1690143333646921e-05
522.548964843844,4.090315914020502e-06
522.7489453125941,8.698921239072205e-06
522.9489257813441,4.367211817633984e-06
523.1489062500942,1.1683986912779332e-05
523.3488867188443,6.9522886965018314e-06
523.5488671875943,1.0444477409585137e-05
523.7488476563443,1.733596288541482e-06
523.9488281250943,1.1681305939058762e-05
524.1488085938444,5.442304537436498e-06
524.3487890625944,1.217117113479261e-05
524.5487695313444,8.219245452949727e-06
524.7487500000944,6.605697767327839e-06
524.9487304688445,1.4159979512167539e-05
525.1487109375945,6.167704716504644e-06
525.3486914063445,1.4216489828705555e-05
525.5486718750946,1.4374649053702557e-05
525.7486523438447,5.537547719660532e-06
525.9486328125947,4.3639685029743364e-06
526.1486132813448,1.2860789806004664e-05
526.3485937500948,1.0504977290453802e-05
526.5485742188448,3.657954711337362e-06
526.7485546875948,5.152919397422652e-06
526.9485351563449,5.276358092285471e-06
527.1485156250949,5.796710946528402e-06
527.3484960938449,6.84842399769201e-06
527.5484765625949,5.641173797995346e-06
527.748457031345,2.0503051205291525e-06
527.948437500095,5.436388058439643e-07
528.148417968845,6.119489029126818e-06
528.3483984375952,1.257059559917171e-05
528.5483789063452,3.6705377801890807e-06
528.7483593750952,5.830460301529631e-06
528.9483398438452,7.957616108389267e-06
529.1483203125953,8.88177203227093e-06
529.3483007813453,5.206047659565062e-06
529.5482812500953,4.565387857519004e-06
529.7482617188454,3.5103828130572803e-06
529.9482421875954,1.1139768787494214e-05
530.1482226563454,4.567001611536213e-06
530.3482031250954,3.7532834456153247e-06
530.5481835938455,8.52077053280078e-06
530.7481640625955,4.589483466591513e-06
530.9481445313456,5.659163387412102e-06
531.1481250000957,6.617778699987725e-06
531.3481054688457,1.5770279266066435e-05
531.5480859375957,2.4935341403277138e-06
531.7480664063457,3.7519626734082896e-06
531.9480468750958,1.4909576893091568e-05
532.1480273438458,5.026419021554802e-06
532.3480078125958,5.672978628981694e-06
532.5479882813459,8.59224742658865e-06
532.7479687500959,5.140551028585846e-06
532.9479492188459,1.5091507608826698e-05
533.1479296875959,9.074380671129296e-06
533.347910156346,5.095887161254017e-06
533.5478906250961,1.2616208254210537e-06
533.7478710938461,3.5039929795165735e-06
533.9478515625962,1.5241002601149499e-05
534.1478320313462,1.3204159014073975e-05
534.3478125000962,4.311033509217354e-06
534.5477929688462,4.887063302660102e-06
534.7477734375963,3.874117217845307e-06
534.9477539063463,4.244604046469707e-06
535.1477343750963,5.908023439697192e-06
535.3477148438463,7.742748578002162e-06
535.5476953125964,9.662726686166865e-06
535.7476757813464,3.4999458747423286e-06
535.9476562500964,5.143404259053801e-06
536.1476367188466,8.542193158104734e-06
536.3476171875966,3.18308966228317e-06
536.5475976563466,2.539477326339269e-06
536.7475781250967,7.517578259927301e-06
536.9475585938467,6.695779842245302e-06
537.1475390625967,8.375148975100661e-06
537.3475195313467,1.5655299969155643e-06
537.5475000000968,6.770934557224996e-06
537.7474804688468,4.480744089085148e-06
537.9474609375968,5.254048546989898e-06
538.1474414063468,4.2285122053915905e-06
538.3474218750969,1.3505396596991932e-05
538.5474023438469,3.5861733965400675e-06
538.747382812597,2.226952886383443e-06
538.9473632813471,5.081989163851063e-06
539.1473437500971,5.293618299338388e-07
539.3473242188471,5.007684932936368e-06
539.5473046875971,6.956642322362572e-06
539.7472851563472,2.9758357341729855e-06
539.9472656250972,2.705346358376868e-06
540.1472460938472,1.179148332148363e-06
540.3472265625973,1.4854043976769021e-06
540.5472070313473,4.9692088631753505e-06
540.7471875000973,4.574596502711613e-06
540.9471679688473,6.0132485313051625e-06
541.1471484375974,6.123955519159592e-06
541.3471289063475,9.576552371093631e-06
541.5471093750975,3.968395328743762e-06
541.7470898438476,1.4006813669559925e-06
541.9470703125976,2.0472595913307536e-06
542.1470507813476,4.260065735761187e-06
542.3470312500976,1.0785485709886666e-05
542.5470117188477,5.479749651210422e-06
542.7469921875977,5.930800885522908e-06
542.9469726563477,1.0145751055621153e-05
543.1469531250978,3.755155450097428e-06
543.3469335938478,4.085116826714062e-06
543.5469140625978,2.096864953384367e-06
543.7468945313478,3.988615074285978e-06
543.946875000098,1.9264287077606207e-06
544.146855468848,7.974399722288908e-06
544.346835937598,9.163705660235772e-07
544.5468164063481,1.8868038046318992e-06
544.7467968750981,5.885793162258474e-06
544.9467773438481,4.217298657614801e-06
545.1467578125981,3.5945471762550858e-06
545.3467382813482,4.078569631095251e-06
545.5467187500982,3.5034633012226885e-06
545.7466992188482,2.238480491593388e-06
545.9466796875982,5.094194031726913e-06
546.1466601563483,5.825148805348226e-06
546.3466406250983,3.5348631411621838e-06
546.5466210938484,6.265590863798284e-06
546.7466015625985,2.9019176441398517e-06
546.9465820313485,5.34037252764651e-06
547.1465625000985,4.6737475227687655e-06
547.3465429688486,9.475941710324778e-06
547.5465234375986,4.484817224404688e-06
547.7465039063486,5.8438386932737605e-06
547.9464843750986,5.2611413015092795e-06
548.1464648438487,6.409928203979194e-06
548.3464453125987,4.73795285390195e-06
548.5464257813487,4.1939431346952546e-06
548.7464062500987,3.5269754359040626e-06
548.9463867188488,5.6327051300981085e-06
549.1463671875989,6.15432245086941e-06
549.3463476563489,6.087297469311251e-06
549.546328125099,3.580534162863384e-06
549.746308593849,1.3301107339128312e-06
549.946289062599,6.522837647971679e-06
550.146269531349,6.72402208650769e-07
550.3462500000991,4.818039321364937e-06
550.5462304688491,5.350318954994768e-06
550.7462109375991,3.2033406109548073e-06
550.9461914063492,3.490959246153433e-06
551.1461718750992,7.828902239849183e-06
551.3461523438492,2.8365363088072426e-06
551.5461328125992,3.7337050300018166e-06
551.7461132813494,4.072133525962455e-06
551.9460937500994,6.129966943722542e-06
552.1460742188494,8.596570210684424e-06
552.3460546875995,1.9709356952810786e-06
552.5460351563495,7.781234527715274e-06
552.7460156250995,9.585173593652838e-07
552.9459960938495,2.35008385909156e-06
553.1459765625996,2.7045624475011337e-06
553.3459570313496,2.4104202170312295e-06
553.5459375000996,7.207799577255959e-07
553.7459179688497,9.616219502539511e-06
553.9458984375997,1.2609667459439026e-06
554.1458789063497,2.636270572059146e-06
554.3458593750998,3.7858501903554887e-06
554.5458398438499,5.3220317896565e-06
554.7458203125999,9.409832750573761e-07
554.9458007813499,1.4352386455750868e-06
555.1457812501,2.5451562638193587e-06
555.34576171885,7.114361033556534e-06
555.5457421876,2.496380547415182e-06
555.74572265635,1.9388367093742594e-06
555.9457031251001,2.0859466710175952e-06
556.1456835938501,1.045290178822846e-06
556.3456640626001,3.6498598304579778e-06
556.5456445313501,3.819507739358784e-06
556.7456250001002,4.037358141195124e-06
556.9456054688502,2.049732161107559e-06
557.1455859376003,7.200044457300479e-07
557.3455664063504,4.284771279943149e-06
557.5455468751004,1.5027624306104843e-06
557.7455273438504,2.017983124552893e-06
557.9455078126005,3.2522665900105577e-06
558.1454882813505,3.277121452057357e-06
558.3454687501005,6.075110814828771e-06
558.5454492188505,2.1218979201051317e-06
558.7454296876006,1.6175439414545696e-06
558.9454101563506,4.200522541805832e-06
559.1453906251006,5.582551696996861e-06
559.3453710938506,3.0980522975425476e-06
559.5453515626007,1.975500168539689e-06
559.7453320313508,1.513826269131696e-06
559.9453125001008,2.283900910993208e-06
560.1452929688509,1.2496288038392954e-06
560.3452734376009,1.5480800234374736e-06
560.5452539063509,3.8143916658628483e-06
560.745234375101,2.345805971175442e-06
560.945214843851,2.9859628264911897e-06
561.145195312601,2.1086692093471992e-07
561.345175781351,4.269942260972412e-06
561.5451562501011,6.033008904361519e-07
561.7451367188511,2.610932918932932e-06
561.9451171876011,2.8679401814246075e-06
562.1450976563511,2.4749826692021776e-06
562.3450781251013,1.0970126456325069e-06
562.5450585938513,4.113960556357637e-06
562.7450390626013,1.7653440626388041e-06
562.9450195313514,2.3486294969488346e-06
563.1450000001014,1.987372331927075e-06
563.3449804688514,1.3628343894627373e-06
563.5449609376014,4.234428928474911e-06
563.7449414063515,1.1001014731159772e-06
563.9449218751015,2.0852185452077062e-06
564.1449023438515,3.3594403687846992e-06
564.3448828126016,1.622008989129404e-06
564.5448632813516,2.8926601465141595e-06
564.7448437501016,1.0041716909240237e-06
564.9448242188517,2.129286160800594e-06
565.1448046876018,1.8375415133184182e-06
565.3447851563518,7.717533908603036e-07
565.5447656251018,1.276092600822632e-06
565.7447460938519,4.131038425814492e-06
565.9447265626019,2.2328251803094414e-06
566.1447070313519,1.4084064113882312e-06
566.3446875001019,2.4384778929481427e-06
566.544667968852,4.105441359242424e-06
566.744648437602,1.5543118676678502e-06
566.944628906352,6.162576152024255e-06
567.144609375102,3.009067142858071e-06
567.3445898438521,1.3859924075359642e-06
567.5445703126022,2.4937415616022208e-06
567.7445507813522,1.966398303520624e-06
567.9445312501023,2.6208791465816924e-06
568.1445117188523,9.635409396499884e-07
568.3444921876023,2.355193730169071e-06
568.5444726563524,1.276012374689448e-06
568.7444531251024,1.2835434830298043e-06
568.9444335938524,3.8011502682346956e-06
569.1444140626024,6.945839684172027e-08
569.3443945313525,1.1703887438679053e-06
569.5443750001025,4.12727125456037e-06
569.7443554688525,1.73021024604106e-06
569.9443359376025,2.2051844726521443e-06
570.1443164063527,1.9510958715310047e-06
570.3442968751027,3.975676497510833e-06
570.5442773438527,4.670839560359958e-06
570.7442578126028,7.826901114632048e-07
570.9442382813528,1.8422293927874e-06
571.1442187501028,2.5208610813110996e-06
571.3441992188529,2.107272726290659e-06
571.5441796876029,1.1315604347840386e-06
571.7441601563529,2.006946311774721e-06
571.9441406251029,1.8790749879216745e-06
572.144121093853,4.382368162733626e-06
572.344101562603,1.3879197978616633e-06
572.544082031353,2.0870352424237323e-06
572.7440625001032,1.2341175864965595e-06
572.9440429688532,3.611145940369827e-06
573.1440234376032,1.5058632204377513e-06
573.3440039063532,1.949307519926608e-06
573.5439843751033,1.0086531573396869e-06
573.7439648438533,3.2226391258622806e-06
573.9439453126033,2.249264698502953e-06
574.1439257813533,3.4406722131426724e-06
574.3439062501034,2.360787281430751e-06
574.5438867188534,1.8746352790540396e-06
574.7438671876034,8.24713405367748e-07
574.9438476563535,1.939092333483128e-06
575.1438281251035,3.0597521972214733e-06
575.3438085938536,1.500691885041014e-06
575.5437890626037,9.370863006357764e-07
575.7437695313537,2.3009658883767166e-06
575.9437500001037,3.370488971045787e-07
576.1437304688537,2.6825965469273456e-06
576.3437109376038,7.596133600930971e-07
576.5436914063538,2.155496744469233e-06
576.7436718751038,2.0395082078133045e-06
576.9436523438538,1.7166450160575498e-06
577.1436328126039,5.851176358571921e-07
577.3436132813539,1.1363163108304911e-06
577.5435937501039,1.6765492447605073e-06
577.743574218854,6.916542827397014e-07
577.9435546876041,2.6883666337535967e-06
578.1435351563541,1.5637253628180598e-06
578.3435156251041,1.6983355767270581e-06
578.5434960938542,2.4682696106709016e-06
578.7434765626042,2.5380630499131807e-06
578.9434570313542,5.287537820472555e-07
579.1434375001043,2.5306467016578366e-06
579.3434179688543,2.9558336919630676e-07
579.5433984376043,1.1443627471264498e-06
579.7433789063543,2.0074883136794997e-06
579.9433593751044,2.8778366211781268e-06
580.1433398438544,2.4386939873629337e-06
580.3433203126044,8.345569022638315e-07
580.5433007813546,1.8452354656704655e-06
580.7432812501046,7.527840900398469e-07
580.9432617188546,2.6697149290641707e-06
581.1432421876046,8.072318268209072e-07
581.3432226563547,1.5234825851828182e-06
581.5432031251047,1.2002996179603477e-06
581.7431835938547,2.4155588624983657e-06
581.9431640626048,2.503587458764138e-07
582.1431445313548,5.352518672451516e-07
582.3431250001048,9.932306467073567e-07
582.5431054688548,7.571980857913646e-07
582.7430859376049,3.5426315991339592e-06
582.9430664063549,1.0256410736971481e-06
583.143046875105,1.5438815701483066e-06
583.343027343855,6.926656155295578e-07
583.5430078126051,1.295407199954274e-06
583.7429882813551,1.0975979539405074e-06
583.9429687501051,3.633380621167232e-07
584.1429492188552,1.052027247580134e-06
584.3429296876052,1.1183090030003152e-06
584.5429101563552,1.6674085977425032e-06
584.7428906251052,1.7025171060976627e-06
584.9428710938553,1.4288793915988306e-06
585.1428515626053,2.427457209807602e-06
585.3428320313553,2.058398251471319e-06
585.5428125001054,1.5741544787925138e-06
585.7427929688555,1.8482592716109904e-06
585.9427734376055,1.3259868773535139e-06
586.1427539063556,1.30082598896094e-06
586.3427343751056,9.480910940734864e-07
586.5427148438556,1.8206857173070054e-06
586.7426953126056,1.7116564921892852e-06
586.9426757813557,1.1960885923568268e-06
587.1426562501057,1.0210766439976722e-06
587.3426367188557,1.6797487541890533e-06
587.5426171876057,9.369604219539632e-07
587.7425976563558,5.374457723860045e-07
587.9425781251058,8.316517523476972e-07
